Wavenumber,FTIR__aspirin_ftir,RAMAN__aspirin_raman
400.0,2.9090309995293873e-13,5.518790256408137e-07
401.0673782521681,3.6570674427690486e-13,6.54556901290843e-07
402.1347565043362,4.594003160681497e-13,7.74807581816017e-07
403.20213475650434,5.766333321541546e-13,9.153520617407745e-07
404.26951300867245,7.231643221132172e-13,1.0792820373815057e-06
405.33689126084056,9.061159205108293e-13,1.2701019977641172e-06
406.40426951300867,1.1342862804956459e-12,1.4917747750076501e-06
407.4716477651768,1.4185286852719045e-12,1.7487706369985717e-06
408.5390260173449,1.772213611588224e-12,2.0461199724313378e-06
409.606404269513,2.211790325396131e-12,2.3894695791484705e-06
410.6737825216811,2.7574684430316725e-12,2.785142520758604e-06
411.74116077384923,3.4340438631495973e-12,3.2402014633608757e-06
412.80853902601734,4.271898171194536e-12,3.7625153435744296e-06
413.87591727818545,5.308206161990501e-12,4.360829150742071e-06
414.94329553035357,6.588392658468167e-12,5.044836530051882e-06
416.0106737825217,8.168105642050264e-12,5.825318917584166e-06
417.0780520346898,1.0140928411171957e-11,6.721108192890411e-06
418.1454302868579,1.2573916148989502e-11,7.739709109355365e-06
419.212808539026,1.5570330473999013e-11,8.895588532653073e-06
420.2801867911941,1.925563842317412e-11,1.0204566404880194e-05
421.34756504336224,2.3782067871324413e-11,1.1683893441486863e-05
422.41494329553035,2.933404958702074e-11,1.3352326546299363e-05
423.48232154769846,3.6134708463177147e-11,1.5230200764145187e-05
424.5496997998666,4.445359424191218e-11,1.7339496467972437e-05
425.6170780520347,5.461587419561892e-11,1.9703900356876935e-05
426.6844563042028,6.701324734236111e-11,2.2348858725428788e-05
427.7518345563709,8.211688255042063e-11,2.530162135567955e-05
428.819212808539,1.0049273209096578e-10,2.8591274283981068e-05
429.88659106070713,1.22819628683455e-10,3.2248759608251476e-05
430.95396931287524,1.49910638793763e-10,3.6306880430662486e-05
432.02134756504336,1.8274641479057932e-10,4.080084666654929e-05
433.08872581721147,2.2296099608338123e-10,4.579607113578854e-05
434.1561040693796,2.7164240020145544e-10,5.130573237911866e-05
435.2234823215477,3.304896393058258e-10,5.7370012444033896e-05
436.2908605737158,4.0152508229993895e-10,6.403066207827138e-05
437.3582388258839,4.871524432471002e-10,7.133086863316855e-05
438.425617078052,5.902244801126586e-10,7.931509539125124e-05
439.49299533022014,7.141219020155643e-10,8.802889086914197e-05
440.56037358238825,8.628451916678504e-10,9.751866687279656e-05
441.62775183455636,1.0411212833548646e-09,0.00010783144435142015
442.6951300867245,1.2545272980821162e-09,0.00011901456640776398
443.7625083388926,1.5096338289370808e-09,0.00013111537817924953
444.8298865910607,1.814170593959904e-09,0.00014418087370019535
445.8972648432288,2.177217633668607e-09,0.00015825731029116426
446.9646430953969,2.6094256287158872e-09,0.0001733897914953032
448.03202134756503,3.1234406732774852e-09,0.00018962383867822722
449.09939959973315,3.740203565314326e-09,0.00020706634492582713
450.16677785190126,4.4724440206333325e-09,0.0002256926474795804
451.23415610406937,5.340548645975512e-09,0.0002455379242137794
452.3015343562375,6.368271297550528e-09,0.00026663360345110035
453.3689126084056,7.583247585148752e-09,0.00028900680719305205
454.4362908605737,9.01758084885081e-09,0.0003126797866756825
455.5036691127418,1.07085083719743e-08,0.00033766935581210116
456.57104736490993,1.2699157487461228e-08,0.0003639863285712932
457.63842561707804,1.5039402192498626e-08,0.00039163496678150926
458.70580386924615,1.778683190827146e-08,0.00042061244522722955
459.77318212141427,2.1007845108113488e-08,0.00045090834121772674
460.8405603735824,2.4778881686796798e-08,0.0004825041560367265
461.9079386257505,2.9187809154099955e-08,0.0005153728758203388
462.9753168779186,3.433547900375373e-08,0.0005494785794541951
464.0426951300867,4.0339810499505204e-08,0.0005847787711967993
465.1100733822548,4.739566453177744e-08,0.0006212764266416797
466.17745163442294,5.560842288120591e-08,0.0006588385244744715
467.24482988659105,6.515428142702444e-08,0.000697389227380746
468.31220813875916,7.623402188176665e-08,0.0007368427978169962
469.3795863909273,8.907608642246911e-08,0.0007771036574699289
470.4469646430954,1.0393998342115477e-07,0.0008180665394986865
471.5143428952635,1.2112005232111553e-07,0.0008596167370255506
472.5817211474316,1.4094961703152714e-07,0.0009016304503186659
473.6490993995997,1.6380555844890617e-07,0.0009439752339959151
474.71647765176783,1.9011333783083477e-07,0.0009865105443904285
475.78385590393594,2.2035250371280958e-07,0.0010290883859678007
476.85123415610406,2.5506271583739023e-07,0.0010715540543912109
477.91861240827217,2.9485032011804894e-07,0.001113746972510849
478.9859906604403,3.403955089431083e-07,0.0011555016142314875
480.0533689126084,3.9248192794596685e-07,0.0011966461873711958
481.1207471647765,4.5241014044318965e-07,0.0012369563890103894
482.1881254169446,5.207788013844329e-07,0.0012762930477660914
483.2555036691127,5.98666904907021e-07,0.001314481706059971
484.32288192128084,6.872753255878019e-07,0.001351348884581231
485.39026017344895,7.879383722799469e-07,0.0013867233625489445
486.45763842561706,9.021361484726386e-07,0.0014204374738218041
487.5250166777852,1.0315077388068007e-06,0.0014523284054217007
488.5923949299533,1.1778652366664617e-06,0.0014822394846562947
489.6597731821214,1.343208622230226e-06,0.0015100214408276186
490.7271514342895,1.5297414939498081e-06,0.0015355336275101213
491.7945296864576,1.7398876490785482e-06,0.0015586451915751568
492.86190793862573,1.9763085005612855e-06,0.0015792361755300726
493.92928619079385,2.2419213082658035e-06,0.0015971985403290326
494.99666444296196,2.5399181921815627e-06,0.001612437096590806
496.06404269513007,2.8739266945996224e-06,0.0016248601770271964
497.1314209472982,3.2500586130382767e-06,0.0016342486808411036
498.1987991994663,3.670501769765239e-06,0.001640708585360176
499.2661774516344,4.1398117279708205e-06,0.0016442057108740917
500.3335557038025,4.662928179395415e-06,0.0016447217017074214
501.40093395597063,5.245197297535649e-06,0.0016422541855256984
502.46831220813874,5.892394226060007e-06,0.0016368167914685196
503.5356904603069,6.6107455442821875e-06,0.00162843902691784
504.60306871247496,7.406951532368764e-06,0.0016171660144382025
505.67044696464313,8.28820803929787e-06,0.0016030580921349957
506.7378252168112,9.262227736565827e-06,0.0015861902823316632
507.80520346897936,1.0337260520485386e-05,0.001566651635047448
508.8725817211474,1.1522112805808408e-05,0.001544544454235153
509.9399599733156,1.2826165433610111e-05,0.0015199834160948833
511.00733822548364,1.4259389897128186e-05,0.0014930945899932764
512.0747164776518,1.5832986857351358e-05,0.0014640059759203346
513.1420947298199,1.7566524075894238e-05,0.0014327691478812617
514.209472981988,1.9464208147590545e-05,0.0013996579422018355
515.2768512341561,2.153859074429527e-05,0.0013648335448834064
516.3442294863243,2.380285828988854e-05,0.0013284623514836019
517.4116077384923,2.6270829943373013e-05,0.0012907146699082702
518.4789859906605,2.8956951292060555e-05,0.0012517634223494754
519.5463642428285,3.1876283363159805e-05,0.0012117828599017492
520.6137424949967,3.504448656413759e-05,0.0011709473028704452
521.6811207471648,3.8477799168429334e-05,0.0011294299190975016
522.7484989993329,4.219300997383541e-05,0.0010874015517953685
523.815877251501,4.6207424776508645e-05,0.001045029607414082
524.8832555036691,5.053882632419813e-05,0.0010024770129865594
525.9506337558372,5.520542743852648e-05,0.0009599012512253396
527.0180120080054,6.022581702785668e-05,0.0009174534804040358
528.0853902601734,6.562074841278063e-05,0.0008752796997802311
529.1527685123416,7.14299528191991e-05,0.0008335443220688897
530.2201467645096,7.765247515469096e-05,0.0007923582335417764
531.2875250166778,8.43077176751533e-05,0.0007518388921286237
532.3549032688459,9.141505533011112e-05,0.0007120943981678526
533.422281521014,9.899373395806821e-05,0.0006732232208672672
534.4896597731821,0.00010706276085397704,0.0006353140217064343
535.5570380253503,0.00011564078791758167,0.0005984455715319049
536.6244162775183,0.00012474598767448525,0.0005626867571543141
537.6917945296865,0.00013439592254911503,0.0005280966724181112
538.7591727818545,0.000144607407856951,0.0004947247879903937
539.8265510340227,0.0001553963690775141,0.0004626111935126908
540.8939292861908,0.0001667776940613432,0.00043178690527527534
541.9613075383589,0.00017876508091886224,0.00040227423221334853
543.028685790527,0.00019137088243347772,0.00037408719278177443
544.0960640426952,0.00020460933236733788,0.00034723902353613295
545.1634422948632,0.00021852089369472905,0.00032179229526961686
546.2308205470314,0.0002330788580669452,0.000297666678736456
547.2981987991994,0.0002482882674522031,0.0002748470529160995
548.3655770513676,0.0002641519933290718,0.0002533127038046373
549.4329553035357,0.0002806705839346815,0.00023303789068685637
550.5003335557038,0.00029784211665242496,0.000213992411692694
551.5677118078719,0.00031566205697972614,0.0001961421629629729
552.63509006004,0.00033412312554970396,0.00017944968626712267
553.7024683122081,0.00035321517469785225,0.00016387470046106924
554.7698465643763,0.0003729250760704889,0.00014937461273727183
555.8372248165443,0.0003932366207612957,0.00013590500619055745
556.9046030687125,0.0004141304334364054,0.00012342010079386268
557.9719813208806,0.0004355839018689019,0.00011187318543832187
559.0393595730487,0.00045757112324445526,0.00010121701923778742
560.1067378252168,0.00048006563665995263,9.140887274494182e-05
561.174116077385,0.0005030548101418161,8.24360391893179e-05
562.241494329553,0.0005264756495084123,7.420747195742478e-05
563.3088725817212,0.0005502884153857104,6.667733154287788e-05
564.3762508338892,0.0005744501165996514,5.9800806793835065e-05
565.4436290860574,0.0005989145859620296,5.3534313483523034e-05
566.5110073382255,0.0006236325794607763,4.783566253907532e-05
567.5783855903936,0.000648551899122696,4.266419933098259e-05
568.6457638425617,0.0006736175396209444,3.798091561804797e-05
569.7131420947298,0.0006987718584964727,3.374853589438089e-05
570.7805203468979,0.0007239547696532933,2.9931579997803615e-05
571.8478985990661,0.0007491039595718523,2.6496403915345322e-05
572.9152768512341,0.0007741551254676838,2.341122076415224e-05
573.9826551034023,0.00079904223440499,2.064610393802646e-05
575.0500333555703,0.000823697802158856,1.8172974394245037e-05
576.1174116077385,0.0008480507748169774,1.5967128201892646e-05
577.1847898599066,0.0008720102252917221,1.4013711834019161e-05
578.2521681120747,0.0008955222272020212,1.2276472719992053e-05
579.3195463642428,0.000918516651437951,1.073459832363638e-05
580.386924616411,0.0009409236238432432,9.368873440841783e-06
581.454302868579,0.0009626738874534612,8.161609309839073e-06
582.5216811207472,0.0009836991699898447,7.0965689603556946e-06
583.5890593729152,0.0010039325540171936,6.158890009574172e-06
584.6564376250834,0.0010233088470907236,5.335005989976223e-06
585.7238158772515,0.001041764949159402,4.612567172713624e-06
586.7911941294196,0.0010592402144611519,3.980361731672219e-06
587.8585723815877,0.0010756768051386155,3.4282379792787775e-06
588.9259506337559,0.0010910200338253104,2.947028296391319e-06
589.9933288859239,0.0011052186925003464,2.5284752762237638e-06
591.0607071380921,0.0011182253649848193,2.165160506820006e-06
592.1280853902601,0.0011299877069584942,1.850735526136443e-06
593.1954636424283,0.0011404075331935277,1.5808253528165184e-06
594.2628418945964,0.0011495154467531645,1.3477455430850118e-06
595.3302201467645,0.0011572827060132792,1.1468681131524499e-06
596.3975983989326,0.0011636856281206733,9.740865325193288e-07
597.4649766511008,0.0011687057483512197,8.257657152916814e-07
598.5323549032688,0.0011723299486216384,6.986955693864216e-07
599.599733155437,0.0011745505540692867,5.900480275493298e-07
600.667111407605,0.0011753653968832902,4.973374560795131e-07
601.7344896597732,0.0011747778468446466,4.183843146592231e-07
602.8018679119413,0.001172796808315619,3.5128192320807025e-07
603.8692461641094,0.0011694366837021201,2.9436617871910875e-07
604.9366244162775,0.001164717303697514,2.461880560819845e-07
606.0040026684457,0.0011586638248951746,2.0548872146692177e-07
607.0713809206138,0.0011513065956333525,1.7117708446352503e-07
608.1387591727819,0.001142671608857786,1.4234474635582917e-07
609.2061374249499,0.0011327484940083943,1.183339317473609e-07
610.2735156771181,0.0011216475258152378,9.818617082442953e-08
611.3408939292863,0.001109418532310254,8.13131678716409e-08
612.4082721814543,0.0010961153751940878,6.721049917344015e-08
613.4756504336224,0.0010817956524256484,5.544660806926302e-08
614.5430286857905,0.0010665203823074603,4.565309044353647e-08
615.6104069379587,0.001050353671597621,3.7516143381979956e-08
616.6777851901268,0.0010333623702772224,3.076905855891407e-08
617.7451634422948,0.0010156157156707701,2.51856507395565e-08
618.812541694463,0.0009971849686593501,2.0574520463553646e-08
619.8799199466312,0.0009781430447400746,1.6774058421579614e-08
620.9472981987992,0.0009585641426741141,1.3648107167188781e-08
622.0146764509673,0.0009385233734274039,1.1082203561398751e-08
623.0820547031354,0.0009180963920457243,8.980332684364086e-09
624.1494329553036,0.0008973571307482639,7.264713337034246e-09
625.2168112074717,0.0008763762196623692,5.877997992152433e-09
626.2841894596397,0.0008552439956440336,4.746796820594095e-09
627.3515677118079,0.0008340345681011153,3.825847351772124e-09
628.4189459639761,0.0008128208187812739,3.0775540790033627e-09
629.4863242161441,0.0007916741046081207,2.4707557215853597e-09
630.5537024683122,0.000770663978753818,1.9796786389894013e-09
631.6210807204803,0.0007498579313075644,1.5830504272917514e-09
632.6884589726485,0.0007293211506874322,1.263350981363202e-09
633.7558372248166,0.0007091163067284833,1.0061812145947403e-09
634.8232154769846,0.0006893033561637835,7.99732217166357e-10
635.8905937291528,0.0006699393709996629,6.343399300643733e-10
636.957971981321,0.0006510783900730699,5.021124406806128e-10
638.025350233489,0.0006327712938749466,3.9661879147848733e-10
639.0927284856571,0.000615065702520143,3.126297593674537e-10
640.1601067378252,0.0005980119758896482,2.4602310143406126e-10
641.2274849899934,0.0005816817526539856,1.9375117654636157e-10
642.2948632421615,0.0005660794080150008,1.522855323835762e-10
643.3622414943295,0.0005512384053930927,1.1945748852831236e-10
644.4296197464977,0.0005371887731638106,9.351964026983142e-11
645.4969979986658,0.0005239571334558866,7.306694005785246e-11
646.5643762508339,0.0005115667483082104,5.697196707821881e-11
647.631754503002,0.000500037581898534,4.433195305567148e-11
648.6991327551701,0.0004893863774880595,3.442552609593073e-11
649.7665110073383,0.00047962674767451944,2.667746873519305e-11
650.8338892595063,0.0004707692765107761,2.063006950467995e-11
651.9012675116744,0.0004628216320270935,1.5919886408358528e-11
652.9686457638426,0.00045578868769108436,1.2258942041735907e-11
654.0360240160107,0.0004496726513485712,9.419539143393895e-12
655.1034022681788,0.0004444732002129378,7.2220269507520695e-12
656.1707805203469,0.00044019617770910737,5.528585878036113e-12
657.238158772515,0.00043687252861437746,4.237932887921736e-12
658.3055370246832,0.0004344497065759026,3.2420829009746247e-12
659.3729152768512,0.0004329184040725702,2.4752424114234483e-12
660.4402935290193,0.000432267530421081,1.885940964731222e-12
661.5076717811875,0.0004324843551494339,1.43399587321126e-12
662.5750500333556,0.00043355464871412637,1.0881014891711696e-12
663.6424282855237,0.00043546281969724147,8.239186510182569e-13
664.7098065376917,0.00043819204771354406,6.225637954106158e-13
665.7771847898599,0.0004417244113507573,4.69416712122331e-13
666.8445630420281,0.00044604101056305563,3.531817770954747e-13
667.9119412941961,0.0004511220830301991,2.651503757560714e-13
668.9793195463642,0.0004569471140878046,1.9862265823416295e-13
670.0466977985324,0.0004634949399226198,1.4845519504737343e-13
671.1140760507005,0.0004707438438141919,1.1070789405171408e-13
672.1814543028686,0.0004786782020687989,8.243912555013088e-14
673.2488325550366,0.0004872994200264033,6.1511829484471e-14
674.3162108072048,0.0004965515332953616,4.5803307022698787e-14
675.383589059373,0.000506411405908164,3.40361432617588e-14
676.450967311541,0.0005168557344575621,2.5239518154791454e-14
677.5183455637091,0.0005278611006993139,1.8677138309430466e-14
678.5857238158773,0.0005394040177483435,1.379173571497265e-14
679.6531020680454,0.0005514609701651564,1.0162415439428377e-14
680.7204803202135,0.0005640084482631211,7.471947187850247e-15
681.7878585723815,0.000577022976996694,5.481735792552758e-15
682.8552368245497,0.000590481139813289,4.012708735376443e-15
683.9226150767179,0.0006043595978682815,2.9307531573104836e-15
684.9899933288859,0.0006186351050148284,2.1356432606569526e-15
686.057371581054,0.0006332845189881248,1.5526397140159563e-15
687.1247498332222,0.0006482848092037715,1.1261300791650412e-15
688.1921280853903,0.0006636162836694092,8.157070315184316e-16
689.2595063375584,0.0006792661163369743,5.924587020563572e-16
690.3268845897264,0.0006951959325848555,4.294143849928989e-16
691.3942628418946,0.0007113831914014352,3.105852506844475e-16
692.4616410940628,0.0007278054652633838,2.2416163723646536e-16
693.5290193462308,0.0007444404359519495,1.6143875337734661e-16
694.5963975983989,0.0007612658897745218,1.1601374048301293e-16
695.663775850567,0.0007782597125041054,8.318681028788217e-17
696.7311541027352,0.0007953998843247097,5.95155315033697e-17
697.7985323549033,0.0008126644750482613,4.248380222689147e-17
698.8659106070713,0.0008300316398438707,3.0256521274173535e-17
699.9332888592395,0.0008474796156965038,2.149816054236825e-17
701.0006671114077,0.0008649867187860243,1.523888222751033e-17
702.0680453635757,0.0008825313429554214,1.0775954720419869e-17
703.1354236157438,0.0009000919594118525,7.601318305665679e-18
704.202801867912,0.000917646807009565,5.3557113449507654e-18
705.2701801200801,0.0009351720945191366,3.786630562205315e-18
706.3375583722482,0.0009526469145956629,2.6715555568033626e-18
707.4049366244162,0.000970050088801536,1.8807927468219607e-18
708.4723148765844,0.0009873605382702303,1.3212123231201761e-18
709.5396931287526,0.001004557292952539,9.260798994312399e-19
710.6070713809206,0.001021619502487518,6.476761694325982e-19
711.6744496330887,0.0010385264486770466,4.51951396224657e-19
712.7418278852568,0.0010552575595247755,3.1466189774425146e-19
713.809206137425,0.0010717924247900439,2.185836085518026e-19
714.8765843895931,0.0010881108129930188,1.5150677582031708e-19
715.9439626417611,0.0011041926897960475,1.0479596336442985e-19
717.0113408939293,0.0011200182376778854,7.235830927427154e-20
718.0787191460975,0.0011355678768073681,4.9906004579288194e-20
719.1460973982655,0.0011508222870147745,3.4430386692803956e-20
720.2134756504336,0.0011657585010413692,2.3867352481062754e-20
721.2808539026017,0.0011803447722534004,1.680548114378655e-20
722.3482321547699,0.001194577643281846,1.2069186815085204e-20
723.415610406938,0.0012084391309975827,9.005176070628087e-21
724.482988659106,0.0012219116395707872,7.178222438144918e-21
725.5503669112742,0.0012349779866778713,6.313749617241794e-21
726.6177451634424,0.001247621429937073,6.260062066357002e-21
727.6851234156104,0.0012598256934435587,6.965447168914261e-21
728.7525016677785,0.0012715749942790273,8.46706897243484e-21
729.8198799199466,0.0012828540688690202,1.0889894864474177e-20
730.8872581721148,0.0012936481990647132,1.4454983028646542e-20
731.9546364242829,0.0013039432378271875,1.9497422072727726e-20
733.0220146764509,0.0013137256343957089,2.6495150099570827e-20
734.0893929286191,0.0013229824588246683,3.6110876223592916e-20
735.1567711807872,0.00133170142577701,4.9250470760786404e-20
736.2241494329553,0.0013398639848640954,6.722274373232678e-20
737.2915276851234,0.0013474393754009625,9.205965317547293e-20
738.3589059372915,0.0013544430970854364,1.2588131454294443e-19
739.4262841894597,0.0013608657808664311,1.7184946686208367e-19
740.4936624416277,0.0013666988099482152,2.3421505906619685e-19
741.5610406937958,0.001371934336694988,3.1868340508758924e-19
742.628418945964,0.0013765652981219591,4.328990722540502e-19
743.6957971981321,0.0013805854299049026,5.87088681100614e-19
744.7631754503002,0.0013839892788447326,7.9491168250184055e-19
745.8305537024683,0.0013867722137304987,1.0745846590480208e-18
746.8979319546364,0.0013889304345511895,1.4503648299773211e-18
747.9653102068046,0.0013904609800125625,1.954504582475954e-18
749.0326884589726,0.0013913617333218885,2.6298227515750753e-18
750.1000667111407,0.0013916314262102543,3.533082261801537e-18
751.1674449633089,0.0013912696411684292,4.739420486288796e-18
752.234823215477,0.001390268658002253,6.355135091349638e-18
753.3022014676451,0.001388609151693278,8.540916319423934e-18
754.3695797198131,0.001386322353766172,1.1458772784686388e-17
755.4369579719813,0.0013834113677254952,1.5347505537152695e-17
756.5043362241495,0.0013798801301032606,2.052176890906526e-17
757.5717144763175,0.001375733401419627,2.739552219715106e-17
758.6390927284856,0.001370976755378191,3.65125335271465e-17
759.7064709806538,0.0013656165663257873,4.858599650305379e-17
760.7738492328219,0.0013596599950106377,6.454990453780233e-17
761.84122748499,0.0013531149726789002,8.562557257932783e-17
762.908605737158,0.0013459901835550703,1.1340764392912195e-16
763.9759839893262,0.0013382950457565535,1.4997512456774003e-16
765.0433622414944,0.0013300396906979,1.9803451604024692e-16
766.1107404936624,0.0013212349410445198,2.6110405464551885e-16
767.1781187458305,0.0013118922872802994,3.437505145977542e-16
768.2454969979987,0.0013020169254358699,4.523465266542439e-16
769.3128752501668,0.0012916062317805414,5.963010916569634e-16
770.3802535023349,0.0012806974103082068,7.847664484005984e-16
771.4476317545029,0.0012693044470280751,1.031112322498102e-15
772.5150100066711,0.0012574418542898472,1.352607620082291e-15
773.5823882588393,0.0012451246403958158,1.771523611282405e-15
774.6497665110073,0.0012323682784004127,2.3165395447549637e-15
775.7171447631754,0.0012191886741847926,3.024530902974323e-15
776.7845230153436,0.0012056021338977404,3.942841046908684e-15
777.8519012675117,0.0011916253308537782,5.132162602565904e-15
778.9192795196798,0.001177275271981714,6.670186809670625e-15
779.9866577718478,0.001162569263915514,8.656218654727211e-15
781.054036024016,0.0011475248788207573,1.1217004746918973e-14
782.1214142761842,0.0011321599200499472,1.451408176558279e-14
783.1887925283522,0.001116492387717385,1.8753028596491746e-14
784.2561707805203,0.001100536695999969,2.421697852951734e-14
785.3235490326884,0.0010843042815481877,3.1314074390593363e-14
786.3909272848566,0.0010678261821016116,4.042629599761447e-14
787.4583055370247,0.001051120846010652,5.2107677601512417e-14
788.5256837891927,0.0010342067416083528,6.705960340393615e-14
789.5930620413609,0.0010171023242975896,8.616866207375102e-14
790.6604402935291,0.0009998260041837051,1.1055387697333818e-13
791.7278185456971,0.0009823961143278276,1.4162554527190731e-13
792.7951967978652,0.0009648308796948857,1.81158429007777e-13
793.8625750500333,0.0009471483868654907,2.31382662174557e-13
794.9299533022015,0.0009293665545776154,2.9509649303822297e-13
795.9973315543696,0.0009115031051616949,3.7580589761451633e-13
797.0647098065376,0.0008935755369264552,4.778972113142025e-13
798.1320880587058,0.0008756010975511299,6.068502702056704e-13
799.199466310874,0.0008575967585351339,7.695011775049992e-13
800.266844563042,0.0008395792466422936,9.751494171992413e-13
801.3342228152101,0.0008215661314355255,1.2368769057959052e-12
802.4016010673782,0.0008035738690666532,1.5664215857786046e-12
803.4689793195464,0.0007856180322026161,1.980728494195731e-12
804.5363575717145,0.0007677138032420166,2.500818482851691e-12
805.6037358238825,0.0007498759562399583,3.152729761279975e-12
806.6711140760507,0.0007321188401285837,3.9686676843744405e-12
807.7384923282189,0.0007144563632488578,4.988406702414782e-12
808.8058705803869,0.0006969019792031012,6.260997174679757e-12
809.8732488325551,0.000679468674034857,7.846840184745425e-12
810.9406270847232,0.000662168954738101,9.820205875735706e-12
812.0080053368913,0.0006450148390937086,1.2272285483580602e-11
813.0753835890594,0.0006280178468267996,1.5314884575250387e-11
814.1427618412275,0.000611188992075732,1.9084885447119797e-11
815.2101400933957,0.0005945387771585001,2.374963072514728e-11
816.2775183455637,0.0005780802249490348,2.953419755894626e-11
817.3448965977318,0.0005618290327734361,3.674738176107683e-11
818.4122748499,0.0005457858026762275,4.565354739724265e-11
819.4796531020681,0.0005299588698164115,5.6633786798794136e-11
820.5470313542362,0.0005143560453357564,7.01512352642083e-11
821.6144096064043,0.0004989846176993726,8.676789911227177e-11
822.6817878585724,0.00048385135513670817,1.0716475546233552e-10
823.7491661107406,0.0004689625091448153,1.321657224342506e-10
824.8165443629086,0.00045432381901396024,1.6276620054025438e-10
825.8839226150767,0.00043994051733267143,2.0016700409267429e-10
826.9513008672449,0.00042581733642872705,2.45814637710797e-10
828.018679119413,0.00041195851570073605,3.014490299801235e-10
829.0860573715811,0.00039836780979267546,3.691600167905215e-10
830.1534356237491,0.00038504849756499173,4.5145407396452097e-10
831.2208138759173,0.000372003391812608,5.513330359316298e-10
832.2881921280855,0.00035923927634732585,6.727942460407718e-10
833.3555703802535,0.00034676570873886736,8.211820145090922e-10
834.4229486324216,0.00033457220935092586,1.000832819518197e-09
835.4903268845898,0.00032265977278511567,1.218017707747035e-09
836.5577051367579,0.00031102898826608537,1.4801998621984584e-09
837.625083388926,0.00029968005288766715,1.7962480158138155e-09
838.692461641094,0.00028861278524211774,2.1766855190959856e-09
839.7598398932622,0.0002778266393844885,2.633980546545037e-09
840.8272181454304,0.00026732071908301035,3.182883687089565e-09
841.8945963975984,0.00025709379230879015,3.8408200154161386e-09
842.9619746497665,0.0002471443059182639,4.628343692849323e-09
844.0293529019347,0.0002374704004830382,5.569664207368933e-09
845.0967311541028,0.00022806992522340553,6.693254542047605e-09
846.1641094062709,0.0002189404530029369,8.032552869599969e-09
847.2314876584389,0.0002100792953422358,9.626770818104556e-09
848.2988659106071,0.00020148783666331106,1.1527701401470662e-08
849.3662441627753,0.0001931694568489355,1.3802750876400578e-08
850.4336224149433,0.00018510950655727454,1.650325703782373e-08
851.5010006671114,0.00017730437169975933,1.9704203219126435e-08
852.5683789192796,0.0001697502537514513,2.349293086664322e-08
853.6357571714477,0.00016244318405526982,2.7971022751481013e-08
854.7031354236158,0.00015537903789746222,3.3256446909595185e-08
855.7705136757838,0.00014855354832589605,3.948599313678308e-08
856.837891927952,0.00014196231968754928,4.6818037088323035e-08
857.9052701801202,0.00013560084086187472,5.543567048357042e-08
858.9726484322882,0.00012946449816882632,6.555023959502136e-08
860.0400266844563,0.0001235485879327848,7.740533810748207e-08
861.1074049366244,0.00011784832868462348,9.128130456108339e-08
862.1747831887926,0.00011235887298662029,1.0750027893319869e-07
863.2421614409607,0.00010707531886767102,1.2643187745573401e-07
864.3095396931287,0.000101996062616668,1.4856167675281662e-07
865.3769179452969,9.7120607006382e-05,1.7450390340179556e-07
866.4442961974651,9.24355705225074e-05,2.0469106259421635e-07
867.5116744496331,8.793593876380819e-05,2.39768073879163e-07
868.5790527018012,8.361669553194498e-05,2.80469580490869e-07
869.6464309539693,7.947283162949913e-05,3.276311281216156e-07
870.7138092061375,7.549935321953959e-05,3.8220154133777064e-07
871.7811874583056,7.169128974657394e-05,4.452565982109497e-07
872.8485657104736,6.804370142000946e-05,5.180141083586744e-07
873.9159439626418,6.455168626252172e-05,6.018505038672341e-07
874.98332221481,6.121038672693172e-05,6.983190564039005e-07
876.050700466978,5.801499588632749e-05,8.091698370756042e-07
877.1180787191461,5.4960763203229993e-05,9.363715381622552e-07
878.1854569713142,5.204299988460518e-05,1.0821352775755616e-06
879.2528352234824,4.92570838304376e-05,1.2489405076270264e-06
880.3202134756505,4.66006298185835e-05,1.4400406448804258e-06
881.3875917278185,4.407173243845932e-05,1.659426412073229e-06
882.4549699799867,4.1660781355671426e-05,1.909629708414431e-06
883.5223482321549,3.9363476487117594e-05,2.194577672558076e-06
884.5897264843229,3.717560395450686e-05,2.5186392610415287e-06
885.657104736491,3.509303872043292e-05,2.8866668909101015e-06
886.7244829886591,3.311174689562258e-05,3.3040409577470524e-06
887.7918612408273,3.122778773013792e-05,3.776717294505753e-06
888.8592394929954,2.9437315301635322e-05,4.311277619095078e-06
889.9266177451634,2.7736579914047498e-05,4.914982998245089e-06
890.9939959973316,2.6121929220269557e-05,5.595830331594696e-06
892.0613742494997,2.458980908259387e-05,6.36261183302178e-06
893.1287525016678,2.3136764184754965e-05,7.2249774558306585e-06
894.1961307538359,2.1759438409519943e-05,8.193500174405334e-06
895.263509006004,2.0454574995798097e-05,9.279743997217292e-06
896.3308872581722,1.922022309083077e-05,1.0498973623671128e-05
897.3982655103403,1.805458810246939e-05,1.18692775030687e-05
898.4656437625083,1.6951923166491006e-05,1.3400483937746249e-05
899.5330220146765,1.5909381960472884e-05,1.5109065616539216e-05
900.6004002668446,1.4924215306534669e-05,1.7012875660926804e-05
901.6677785190127,1.3993770266903325e-05,1.913122692394071e-05
902.7351567711808,1.3115489118523379e-05,2.148497162274848e-05
903.8025350233489,1.2286908219785706e-05,2.4096580726344645e-05
904.8699132755171,1.1505656782249332e-05,2.6990222451287216e-05
905.9372915276851,1.0769455560017045e-05,3.019183914823682e-05
907.0046697798532,1.0076115469207992e-05,3.372922179082216e-05
908.0720480320214,9.423536149742859e-06,3.763208120677527e-05
909.1394262841895,8.809704481430946e-06,4.193211512010286e-05
910.2068045363576,8.232693066117009e-06,4.6663070003178435e-05
911.2741827885256,7.690658687418197e-06,5.1860796669974444e-05
912.3415610406938,7.1824335547594536e-06,5.757359154086776e-05
913.4089392928619,6.706887868408834e-06,6.385634801486159e-05
914.47631754503,6.261111125595279e-06,7.073149093456999e-05
915.5436957971981,5.843593447705478e-06,7.824403337518279e-05
916.6110740493663,5.452901199953552e-06,8.64412335029083e-05
917.6784523015343,5.0876755591644984e-06,9.537258329848924e-05
918.7458305537025,4.746631136612027e-06,0.00010508978168713335
919.8132088058705,4.428554665789568e-06,0.0001156466906843299
920.8805870580387,4.1323037648402295e-06,0.0001270992731774207
921.9479653102068,3.85680578322939e-06,0.00013950551098926094
923.0153435623749,3.6010567421128846e-06,0.0001529253019123954
924.082721814543,3.364120377728745e-06,0.0001674203344605034
925.1501000667112,3.1451272970306456e-06,0.00018305393916489838
926.2174783188792,2.943274254675987e-06,0.000199890915337493
927.2848565710474,2.757823560381293e-06,0.00021799733234348026
928.3522348232154,2.5883959068763554e-06,0.00023746763287584637
929.4196130753836,2.434645684668967e-06,0.00025840294039141656
930.4869913275517,2.2954220908415136e-06,0.0002808187639212237
931.5543695797198,2.170256895345023e-06,0.00030478370570921013
932.6217478318879,2.0587468017687046e-06,0.00033036616642809577
933.689126084056,1.9605538667084576e-06,0.0003576339761061968
934.7565043362241,1.8754061122743925e-06,0.00038665399808724045
935.8238825883923,1.8030983399177733e-06,0.00041749170683142675
936.8912608405603,1.7434931536047948e-06,0.0004502107406655521
937.9586390927285,1.6965222001939257e-06,0.00048487243089962145
939.0260173448966,1.6621876346678437e-06,0.0005215353090483902
940.0933955970647,1.6405638176373876e-06,0.0005602545942236374
941.1607738492328,1.6317992522620646e-06,0.0006010816630960312
942.228152101401,1.6361187674146752e-06,0.0006440635051581914
943.295530353569,1.6538259535565605e-06,0.000689242166352005
944.3629086057372,1.6855912187253955e-06,0.000736699509409462
945.4302868579052,1.732194324226554e-06,0.0007865104099688485
946.4976651100734,1.7936702348966084e-06,0.0008386106716165525
947.5650433622416,1.8706822520897547e-06,0.0008930156590250695
948.6324216144096,1.9639894184845864e-06,0.0009497328572105382
949.6997998665778,2.0744506455468837e-06,0.0010087613311305736
950.7671781187458,2.203029123905053e-06,0.0010700912046370064
951.834556370914,2.35079701748316e-06,0.0011337031639252159
952.9019346230821,2.518940441161596e-06,0.0011995679907207313
953.9693128752502,2.708764720553083e-06,0.001267646130498614
955.0366911274183,2.9216999311880165e-06,0.0013378873010343158
956.1040693795865,3.1593067130016514e-06,0.0014102301465376314
957.1714476317545,3.423282354495125e-06,0.0014846019425160378
958.2388258839227,3.715467139298837e-06,0.0015609183563550406
959.3062041360907,4.037850946112771e-06,0.0016390832683836451
960.3735823882589,4.393295729591614e-06,0.0017190219509478212
961.440960640427,4.784911309998525e-06,0.0018006330469733356
962.5083388925951,5.213961197722538e-06,0.0018837166008744998
963.5757171447632,5.683133781067493e-06,0.00196812708019782
964.6430953969314,6.19530495490462e-06,0.0020537073762019026
965.7104736490994,6.753545967787496e-06,0.0021402890880975146
966.7778519012676,7.361131392009074e-06,0.0022276928904234614
967.8452301534356,8.021547188217263e-06,0.002315728984334541
968.9126084056038,8.73849883335581e-06,0.002404197632885047
969.9799866577719,9.515919477751278e-06,0.002492889779660989
971.04736490994,1.0357978094145396e-05,0.002581587749368184
972.1147431621081,1.1269087578380542e-05,0.002670066028217109
973.1821214142763,1.2253912758303655e-05,0.0027580921211760724
974.2494996664443,1.3317378264263872e-05,0.0028454274823917964
975.3168779186125,1.4464676211379293e-05,0.0029318285143175088
976.3842561707805,1.5703291971060676e-05,0.0030170170909513583
977.4516344229487,1.7041001658886053e-05,0.0031006999377449444
978.5190126751168,1.848050696154513e-05,0.003182670166384249
979.5863909272849,2.002818872502495e-05,0.0032626752814563973
980.653769179453,2.1690729959410335e-05,0.0033404638119808945
981.7211474316211,2.3475121018299526e-05,0.003415786594286969
982.7885256837892,2.5388664133638703e-05,0.003488398071197821
983.8559039359574,2.7438977231515385e-05,0.003558057598263352
984.9232821881254,2.963399695212838e-05,0.003624530747512229
985.9906604402936,3.198198079510517e-05,0.003687590599013794
987.0580386924617,3.44915083095227e-05,0.003747019010448655
988.1254169446298,3.717148124653005e-05,0.0038026078548910767
989.1927951967979,4.0031122591313155e-05,0.003854160217105714
990.260173448966,4.307997439040015e-05,0.0039014915388567635
991.3275517011341,4.6327894289944885e-05,0.003944430704020322
992.3949299533023,4.9789843432509395e-05,0.003982718809765479
993.4623082054703,5.348048345100983e-05,0.004016133268578086
994.5296864576385,5.740283656367235e-05,0.004044720929896296
995.5970647098065,6.156800291740726e-05,0.004068376597474235
996.6644429619747,6.598735608516045e-05,0.00408701285970243
997.7318212141428,7.067252969819814e-05,0.004100560621845179
998.7991994663109,7.563540221197471e-05,0.004108969528151102
999.866577718479,8.088807973855272e-05,0.0041122082702599524
1000.9339559706472,8.644287688356805e-05,0.0041102647792874885
1002.0013342228152,9.23122955313544e-05,0.004103146299954169
1003.0687124749834,9.850900152821377e-05,0.004090879346127527
1004.1360907271514,0.00010504579922112504,0.004073509538157529
1005.2034689793196,0.00011193560381626838,0.004051101323388907
1006.2708472314877,0.00011919141153138563,0.004023737582227805
1007.3382254836558,0.00012682626752411955,0.003991519123101771
1008.4056037358239,0.00013486230317147127,0.003954461249729259
1009.4729819879921,0.00014331928111078782,0.003912645335486942
1010.5403602401601,0.0001521958118812177,0.0038663967296399507
1011.6077384923283,0.00016150474762840054,0.00381588303036291
1012.6751167444963,0.00017125878677262497,0.0037612855393687195
1013.7424949966645,0.00018147042834645364,0.0037027981933386023
1014.8098732488326,0.00019215192432098883,0.003640626432922063
1015.8772515010007,0.0002033152300059228,0.003574986018428992
1016.9446297531688,0.00021497195261937466,0.003506101801654593
1018.012008005337,0.00022713329814153123,0.00343420646349599
1019.079386257505,0.00023981001657881536,0.0033595392271443063
1020.1467645096732,0.0002530123457817241,0.0032823445566633634
1021.2141427618412,0.00026674995397279734,0.0032028708506993517
1022.2815210140094,0.00028103188115896876,0.003121369140906351
1023.3488992661775,0.00029586647961479416,0.003038091804425671
1024.4162775183456,0.0003112743758104198,0.0029532622997530517
1025.4836557705137,0.00032727016684305294,0.0028671348044836
1026.551034022682,0.0003438394931009844,0.0027800116340292837
1027.61841227485,0.00036098719189691915,0.0026921375177097855
1028.685790527018,0.00037871709679214037,0.002603752397575342
1029.7531687791861,0.00039703197742228764,0.0025150904134639313
1030.8205470313542,0.00041593348016923267,0.002426378955600553
1031.8879252835222,0.00043542206996981204,0.0023378377893938465
1032.9553035356905,0.0004554969735619072,0.002249678256329145
1034.0226817878586,0.00047615612447398856,0.002162102554088536
1035.0900600400269,0.0004973961100708811,0.0020753030982567588
1036.157438292195,0.0005192121209716678,0.0019894619672070862
1037.224816544363,0.0005415979031593023,0.0019047504310077202
1038.292194796531,0.0005645457131010993,0.0018213285644566577
1039.359573048699,0.0005880462762004543,0.0017393449436502167
1040.4269513008671,0.0006121012043031395,0.0016589765480218227
1041.4943295530354,0.0006367031789741847,0.0015803772047977864
1042.5617078052035,0.0006618187571543424,0.0015036020544392506
1043.6290860573718,0.000687431936652563,0.001428750390219334
1044.6964643095398,0.0007135250343471512,0.0013559097083768283
1045.7638425617079,0.0007400786723221032,0.0012851558738935804
1046.831220813876,0.0007670717694519006,0.0012165533481599685
1047.898599066044,0.0007944815386708154,0.0011501554738419337
1048.965977318212,0.0008222834901467947,0.0010860048120326187
1050.0333555703803,0.0008504514405564697,0.0010241335265962015
1051.1007338225484,0.000878957528637368,0.0009645638104953147
1052.1681120747166,0.0009077722371666862,0.0009073083488314276
1053.2354903268847,0.0009368644214914544,0.0008523708133217271
1054.3028685790528,0.000966201344705997,0.000799746382975682
1055.3702468312208,0.000995748719544341,0.0007494222858251098
1056.4376250833889,0.001025474043834626,0.0007014327082385708
1057.505003335557,0.0010553384950340286,0.0006557719022541105
1058.5723815877252,0.0010852972892080844,0.0006123266026306324
1059.6397598398933,0.0011153102968825778,0.0005710571052671346
1060.7071380920615,0.0011453361650264758,0.000531918724767381
1061.7745163442296,0.0011753324003516835,0.0004948623621067884
1062.8418945963977,0.001205255458834847,0.0004598350620816956
1063.9092728485657,0.0012350608412486112,0.00042678055741842633
1064.9766511007338,0.0012647031944582915,0.00039563979674854175
1066.0440293529018,0.001294136418204026,0.00036635145398607584
1067.11140760507,0.0013233137770555078,0.0003388524169758211
1068.1787858572382,0.001352188017193839,0.00031307825360653123
1069.2461641094064,0.0013807114876436084,0.0002889636539042462
1070.3135423615745,0.0014088362655476055,0.00026644284692979814
1071.3809206137425,0.0014365142850504054,0.00024544999160330084
1072.4482988659106,0.001463684013160062,0.00022595403567810392
1073.5156771180787,0.0014902886067598032,0.0002078981567719214
1074.5830553702467,0.001516297469633989,0.00019116883998852768
1075.650433622415,0.0015416633957860053,0.00017570357351698212
1076.717811874583,0.0015663397457900238,0.0001614413721660075
1077.7851901267513,0.0015902805868086409,0.00014832300182742738
1078.8525683789194,0.0016134408323881238,0.00013629117882048658
1079.9199466310874,0.0016357763814466271,0.00012529074499654274
1080.9873248832555,0.001657244255864997,0.00011526881959768067
1082.0547031354236,0.0016778027360889079,0.00010617492895540152
1083.1220813875916,0.0016974114941515342,9.796111518945934e-05
1084.18945963976,0.0017160317235312911,9.058202512034383e-05
1085.256837891928,0.0017336262652663278,8.399498064417799e-05
1086.3242161440962,0.0017501597297596954,7.816003183784642e-05
1087.3915943962643,0.0017655986137227163,7.303999406472908e-05
1088.4589726484323,0.0017798821440350417,6.861686854181087e-05
1089.5263509006004,0.0017929692329870836,6.486211054443109e-05
1090.5937291527684,0.001804870912401411,6.172462089595576e-05
1091.6611074049365,0.0018155626557163982,5.9178805207059586e-05
1092.7284856571048,0.001825022331901186,5.720181596535651e-05
1093.7958639092728,0.001833230280902383,5.5773516917430887e-05
1094.8632421614411,0.0018401693809334378,5.487643962110496e-05
1095.9306204136092,0.0018458251072867406,5.44957330326481e-05
1096.9979986657772,0.0018501855823889403,5.461910691549383e-05
1098.0653769179453,0.001853241616860085,5.523676977709559e-05
1099.1327551701133,0.001854986741380098,5.634136195989459e-05
1100.2001334222814,0.0018554172292091474,5.792788443207758e-05
1101.2675116744497,0.001854532109254071,5.999362374481129e-05
1102.3348899266177,0.0018523331696162996,6.253807354582948e-05
1103.402268178786,0.0018488249516050554,6.556285296546252e-05
1104.469646430954,0.0018439812825990333,6.908430632823832e-05
1105.5370246831221,0.0018378040517357775,7.311210982020138e-05
1106.6044029352902,0.0018303492394708075,7.763805961624349e-05
1107.6717811874582,0.0018216325583429675,8.267166850607185e-05
1108.7391594396263,0.0018116722913306823,8.822410667330348e-05
1109.8065376917946,0.0018004892288127907,9.430810374047023e-05
1110.8739159439626,0.0017881065972103437,0.0001009378481866829
1111.941294196131,0.001774549979649332,0.00010812888403334581
1113.008672448299,0.001759847229019681,0.00011589800467102062
1114.076050700467,0.0017440283738391707,0.00012426314368569588
1115.143428952635,0.0017271255173634161,0.00013324326253481695
1116.2108072048031,0.001709172730411823,0.00014285823492041309
1117.2781854569712,0.001690205938404226,0.0001531287277127805
1118.3455637091395,0.0016702628031278058,0.00016407607828797366
1119.4129419613075,0.0016493825997723898,0.000175722168161182
1120.4803202134758,0.0016275834997723103,0.0001881090065026836
1121.5476984656439,0.0016049060960352172,0.0002012653808953616
1122.615076717812,0.0015814228029111077,0.00021519060843225036
1123.68245496998,0.0015571781917098292,0.00022990738097385094
1124.749833222148,0.00153221775331895,0.00024543821492559257
1125.817211474316,0.001506587758740228,0.0002618053009663221
1126.8845897264844,0.0014803351191196878,0.00027903035023580937
1127.9519679786524,0.001453507245851391,0.00029713443720045987
1129.0193462308207,0.0014261519113271644,0.00031613783947585106
1130.0867244829888,0.0013983171108904878,0.0003360598749429288
1131.1541027351568,0.0013700509265375358,0.00035691873655632083
1132.2214809873249,0.0013414013928912734,0.00037873132530345604
1133.288859239493,0.0013124163659522263,0.0004015130818356092
1134.356237491661,0.001283143395107406,0.00042527781735251873
1135.4236157438293,0.0012536295988548726,0.0004500375443814721
1136.4909939959973,0.0012239175652001104,0.0004758297397334364
1137.5583722481656,0.0011940561631760425,0.0005026675347921257
1138.6257505003337,0.001164096427001357,0.0005305241851758988
1139.6931287525017,0.0011340824404115566,0.0005594024230293673
1140.7605070046698,0.0011040572858701783,0.000589302329856455
1141.8278852568378,0.001074062951988882,0.0006202211845518434
1142.8952635090059,0.0010441402470713062,0.0006521533175179591
1143.9626417611742,0.0010143287189727387,0.00068508997187072
1145.0300200133422,0.0009846665814334061,0.0007190191727543449
1146.0973982655105,0.0009551906470070359,0.0007539256057973855
1147.1647765176785,0.0009259362666741102,0.0007897905057424989
1148.2321547698466,0.0008969372761923966,0.0008265915562787726
1149.2995330220147,0.0008682259492061248,0.0008643028020903675
1150.3669112741827,0.0008398329571019712,0.0009028945741125242
1151.4342895263508,0.0008117873355676677,0.0009423334289538457
1152.501667778519,0.0007841275559490317,0.0009826033346424393
1153.569046030687,0.0007568826821182036,0.001023662205194516
1154.6364242828554,0.0007300646765902494,0.0010654392944219936
1155.7038025350234,0.0007036955592065438,0.0011078851649056693
1156.7711807871915,0.0006777956448492864,0.0011509465533818674
1157.8385590393596,0.0006523835490521552,0.0011945664169761257
1158.9059372915276,0.0006274761991782759,0.0012386839987754965
1159.9733155436957,0.0006030888509205252,0.0012832349130920172
1161.040693795864,0.0005792351098612907,0.0013281512506618152
1162.108072048032,0.0005559269578142179,0.0013733617039063757
1163.1754503002003,0.0005331747836594466,0.0014187917122629517
1164.2428285523683,0.0005109874183743677,0.0014643636274640564
1165.3102068045364,0.0004893721739515206,0.001509996898517867
1166.3775850567044,0.00046833488589262,0.001555608276007979
1167.4449633088725,0.00044787995896038217,0.0016011120351984223
1168.5123415610406,0.00042802700317955605,0.001646412077484797
1169.5797198132088,0.00040877912406437836,0.0016914102479622729
1170.647098065377,0.0003901186185274635,0.0017360208970571272
1171.7144763175452,0.0003720444971226822,0.0017801508119740534
1172.7818545697132,0.0003545546179048205,0.0018237057386371533
1173.8492328218813,0.0003376457453207248,0.001866590702107955
1174.9166110740493,0.00032131361009297353,0.0019087103381302218
1175.9839893262174,0.0003055529698098826,0.0019499692342560583
1177.0513675783855,0.0002903576699461735,0.0019902722789116927
1178.1187458305537,0.00027572070504833994,0.0020295250166752514
1179.1861240827218,0.00026163427983263553,0.002067634007961278
1180.25350233489,0.0002480898699541062,0.002104507191242271
1181.3208805870581,0.00023507828222075068,0.0021400542458853435
1182.3882588392262,0.00022258971403875432,0.002174186953640307
1183.4556370913942,0.00021061381189092971,0.00220681955679038
1184.5230153435623,0.00019915386665865194,0.0022378210889681272
1185.5903935957303,0.0001881982034896285,0.0022671034936860134
1186.6577718478986,0.00017772006539864806,0.0022946388042721813
1187.7251501000667,0.00016770741147801324,0.002320355209045471
1188.792528352235,0.00015814793170528538,0.002344185086875887
1189.859906604403,0.00014902909581719637,0.0023660652997640683
1190.927284856571,0.0001403382002222983,0.0023859374681332274
1191.9946631087391,0.00013206241287693724,0.002403748227171152
1193.0620413609072,0.00012418881606160556,0.0024194494626612246
1194.1294196130752,0.00011670444701057795,0.002432998524859491
1195.1967978652435,0.00010959633635875914,0.002444358419099627
1196.2641761174116,0.00010285154438251182,0.0024534979719462264
1197.3315543695799,9.645719502323427e-05,0.0024603919718620233
1198.398932621748,9.040050769318095e-05,0.0024650212835107214
1199.466310873916,8.466882687360973e-05,0.0024673729349768245
1200.533689126084,7.925847342158123e-05,0.0024673729347581544
1201.601067378252,7.415611154112559e-05,0.0024650212828424417
1202.6684456304201,6.934048534241423e-05,0.002460391970708134
1203.7358238825884,6.479973075493084e-05,0.002453497970245441
1204.8032021347565,6.052222802670416e-05,0.002444358416762903
1205.8705803869248,5.64966183331996e-05,0.002432998521765492
1206.9379586390928,5.271181850150462e-05,0.0024194494586511016
1208.0053368912609,4.915703391934876e-05,0.002403748222041066
1209.072715143429,4.5821769702471905e-05,0.0023859374616253645
1210.140093395597,4.269584019708522e-05,0.0023660652915551083
1211.207471647765,3.976937689683695e-05,0.002344185076562943
1212.2748498999333,3.7032834855740434e-05,0.0023203551961282643
1213.3422281521014,3.4476997680006745e-05,0.0022946387881320435
1214.4096064042697,3.2092981182653027e-05,0.0022671034735595036
1215.4769846564377,2.9872235785215535e-05,0.0022378210639153813
1216.5443629086058,2.781095931881675e-05,0.002206819525613382
1217.6117411607738,2.5900468666466227e-05,0.00217418691485418
1218.6791194129419,2.4128821502773224e-05,0.0021400541977096995
1219.7464976651102,2.248886077318985e-05,0.002104507131496345
1220.8138759172782,2.0973759480555903e-05,0.0020676339339779103
1221.8812541694465,1.9577017146475116e-05,0.002029524925197563
1222.9486324216145,1.8292455606466115e-05,0.001990272165968295
1224.0160106737826,1.711421421156361e-05,0.0019499690950115318
1225.0833889259507,1.6036744506377213e-05,0.0019087101667057994
1226.1507671781187,1.5054804450740508e-05,0.0018665904913666301
1227.2181454302868,1.4163452249089174e-05,0.0018237054799268141
1228.285523682455,1.3358039848588482e-05,0.00178015049482079
1229.352901934623,1.263420616384232e-05,0.0017360205087997614
1230.4202801867914,1.1987870082749793e-05,0.001691409773317061
1231.4876584389594,1.1415223304791625e-05,0.0016464114980286348
1232.5550366911275,1.0914766786223445e-05,0.0016011113279351056
1233.6224149432956,1.0482802924490818e-05,0.0015556074130709135
1234.6897931954636,1.0114362888725381e-05,0.0015099958471775316
1235.7571714476317,9.806693396105859e-06,0.001464362348440103
1236.8245496998,9.557275762873494e-06,0.0014187901584817508
1237.891927951968,9.363818654355572e-06,0.0013733598190369019
1238.9593062041363,9.224250942137902e-06,0.0013281489673923562
1240.0266844563043,9.136714693354994e-06,0.0012832321511057156
1241.0940627084724,9.099558314246562e-06,0.0012386806623753
1242.1614409606404,9.111329867423517e-06,0.001194562392302895
1243.2288192128085,9.170770579685978e-06,0.001150941705160784
1244.2961974649766,9.276808554759175e-06,0.0011078793326472051
1245.3635757171448,9.428552702959004e-06,0.0010654322879918936
1246.430953969313,9.625286897558489e-06,0.0010236537996571383
1247.4983322214812,9.866464365526693e-06,0.0009825932642671623
1248.5657104736492,1.0153069619280309e-05,0.0009423213686927861
1249.6330887258173,1.048471831498459e-05,0.0009028801388558349
1250.7004669779853,1.0860146145449278e-05,0.0008642855487000336
1251.7678452301534,1.1279455310470928e-05,0.0008265709637073315
1252.8352234823215,1.174289214476972e-05,0.0007897659622270496
1253.9026017344897,1.2250843030413613e-05,0.0007538963941076671
1254.9699799866578,1.2803830547232083e-05,0.0007189844532272442
1256.037358238826,1.3402509856061584e-05,0.0006850487629296689
1257.1047364909941,1.4047665308638337e-05,0.0006521044733403858
1258.1721147431622,1.4740207277034101e-05,0.0006201633695083295
1259.2394929953302,1.5481169194689105e-05,0.0005892339893027601
1260.3068712474983,1.627170480035766e-05,0.0005593217499838385
1261.3742494996663,1.7113085575619365e-05,0.000530429082365152
1262.4416277518346,1.8006698366022265e-05,0.0005025555714911093
1263.5090060040027,1.8954043175421685e-05,0.0004756981027669324
1264.576384256171,1.9958546199059147e-05,0.0004498828629245792
1265.643762508339,2.102181556715262e-05,0.0004250961883789543
1266.711140760507,2.2144193870321313e-05,0.0004013001070255064
1267.7785190126751,2.3327631213129056e-05,0.0003784819399726401
1268.8458972648432,2.4574181756210145e-05,0.00035662711724488864
1269.9132755170112,2.5886002331708373e-05,0.0003357193355348012
1270.9806537691795,2.7265351146464777e-05,0.00031574071462695186
1272.0480320213476,2.871458656055937e-05,0.0002966719517515785
1273.1154102735159,3.02361659287825e-05,0.0002784924731794218
1274.182788525684,3.1832644492610704e-05,0.0002611805824268397
1275.250166777852,3.350667431030689e-05,0.0002447136044978838
1276.31754503002,3.526100321281471e-05,0.00022906802564748234
1277.384923282188,3.709847377321158e-05,0.00021421962820987784
1278.4523015343561,3.902202227759008e-05,0.0002001436200919477
1279.5196797865244,4.103467768537069e-05,0.00018681475859093168
1280.5870580386925,4.3142652708435e-05,0.00017422997095236894
1281.6544362908608,4.534888077139114e-05,0.0001623571364233595
1282.7218145430288,4.7654226846136054e-05,0.00015115128112758045
1283.7891927951969,5.006209326611673e-05,0.00014058648970631746
1284.856571047365,5.257596900165634e-05,0.00013063693897688672
1285.923949299533,5.519942829288427e-05,0.00012127698194487563
1286.991327551701,5.793612919038106e-05,0.00011248122521862973
1288.0587058038693,6.078981199324535e-05,0.00010422459988350471
1289.1260840560374,6.37642975745677e-05,9.648242592866116e-05
1290.1934623082057,6.686348558458643e-05,8.923047035168486e-05
1291.2608405603737,7.009135252207793e-05,8.244499909555733e-05
1292.3282188125418,7.345194966486077e-05,7.610282299811975e-05
1293.3955970647098,7.694940085059245e-05,7.018133795756367e-05
1294.4629753168779,8.058790009938765e-05,6.465855953695884e-05
1295.530353569046,8.437170907012288e-05,5.9513152247728785e-05
1296.5977318212142,8.831023463213908e-05,5.4735536819486524e-05
1297.6651100733823,9.240716253881862e-05,5.030169966442478e-05
1298.7324883255505,9.666306497324597e-05,4.618329650681676e-05
1299.7998665777186,0.00010108245328078346,4.236189781550813e-05
1300.8672448298867,0.00010566989023063599,3.8819799344974e-05
1301.9346230820547,0.00011042998627370322,3.554002431639542e-05
1303.0020013342228,0.00011536739558673414,3.25063222758322e-05
1304.0693795863908,0.00012048681189842806,2.970316490890245e-05
1305.136757838559,0.00012579296409243932,2.7115739086578448e-05
1306.2041360907272,0.0001312906115840627,2.4729937410388828e-05
1307.2715143428954,0.000136984539467477,2.2532346517700693e-05
1308.3388925950635,0.00014287955343065704,2.0510233399051427e-05
1309.4062708472316,0.00014898047443567494,1.865152996974377e-05
1310.4736490993996,0.0001552921331631595,1.6944816127431626e-05
1311.5410273515677,0.00016181936421985816,1.5379301516193475e-05
1312.6084056037357,0.00016857456021633247,1.3948872410484836e-05
1313.675783855904,0.00017556110809336065,1.2642154285134405e-05
1314.743162108072,0.00018277822586948848,1.1446918026360748e-05
1315.8105403602403,0.0001902306965085867,1.0354773666374925e-05
1316.8779186124084,0.0001979232729465915,9.357852866177275e-06
1317.9452968645764,0.00020586067083770804,8.44878685428464e-06
1319.0126751167445,0.0002140475610752461,7.620684307525504e-06
1320.0800533689126,0.00022248856209244915,6.867109292767249e-06
1321.1474316210806,0.00023118823194749773,6.182059376785824e-06
1322.214809873249,0.0002401510601993821,5.559944000214757e-06
1323.282188125417,0.00024938145958090026,4.9955632006722075e-06
1324.3495663775852,0.0002588837574760376,4.4840867597990484e-06
1325.4169446297533,0.0002686621872100616,4.021033839082309e-06
1326.4843228819213,0.00027872087916144833,3.6022531600049697e-06
1327.5517011340894,0.00028906385170458614,3.2239037752909855e-06
1328.6190793862575,0.00029970497130399435,2.8835811304377426e-06
1329.6864576384255,0.00031064557260646953,2.5774293932542555e-06
1330.7538358905938,0.0003218821271743158,2.3015629990795405e-06
1331.8212141427618,0.00033341808637237403,2.053238076057138e-06
1332.8885923949301,0.00034525674016495667,1.8299318897480641e-06
1333.9559706470982,0.0003574012072708623,1.6293278939684446e-06
1335.0233488992662,0.00036985442524270333,1.4493015005670832e-06
1336.0907271514343,0.0003826191404855747,1.2879065636085182e-06
1337.1581054036023,0.00039569789823166686,1.143362569695327e-06
1338.2254836557704,0.0004090930324879701,1.0140425228783385e-06
1339.2928619079387,0.00042280665597502665,8.984615097603153e-07
1340.3602401601067,0.0004368406500749423,7.95265927955368e-07
1341.427618412275,0.00045119665480721773,7.032233590130585e-07
1342.494996664443,0.00046587605885308787,6.212130652071554e-07
1343.5623749166111,0.0004808799896472518,5.482170882160064e-07
1344.6297531687792,0.0004962206233403392,4.835631741888014e-07
1345.6971314209472,0.0005118951066871307,4.262710728093661e-07
1346.7645096731153,0.0005278958240812978,3.754015069426885e-07
1347.8318879252836,0.000544222711931097,3.3028018499553317e-07
1348.8992661774516,0.0005608753958075064,2.902981382079835e-07
1349.96664442962,0.000577853181445095,2.5490602951225566e-07
1351.034022681788,0.0005951550459701957,2.2360888760970299e-07
1352.101400933956,0.0006127796293792183,1.9596124224449253e-07
1353.168779186124,0.0006307252262908033,1.7156263717033313e-07
1354.2361574382921,0.00064898977799462,1.500534979188831e-07
1355.3035356904602,0.0006675708648207891,1.3111133217118822e-07
1356.3709139426285,0.0006864656988530761,1.1444724129154048e-07
1357.4382921947965,0.0007056711170093041,9.980272239315424e-08
1358.5056704469648,0.0007251835745118408,8.694674115458096e-08
1359.5730486991329,0.0007449991387715619,7.5673056484077e-08
1360.640426951301,0.000765123864526775,6.584125293561183e-08
1361.707805203469,0.000785549109857763,5.7260155768912995e-08
1362.775183455637,0.0008062626559285751,4.9754114269972204e-08
1363.842561707805,0.0008272589017137652,4.3195996433487e-08
1364.9099399599734,0.0008485318341581956,3.7472967333132467e-08
1365.9773182121414,0.0008700750251400168,3.24850126112946e-08
1367.0446964643097,0.0008918816290025461,2.8143603450260172e-08
1368.1120747164778,0.0009139443806740371,2.4370491444100645e-08
1369.1794529686458,0.0009362555943931395,2.109662258835576e-08
1370.2468312208139,0.0009588071630573511,1.8261160373625395e-08
1371.314209472982,0.0009815905582114238,1.5810608707577935e-08
1372.38158772515,0.0010045968306901904,1.3698026096962908e-08
1373.4489659773183,0.0010278166119306181,1.1882323196353183e-08
1374.5163442294863,0.0010512401159662591,1.0327636473476928e-08
1375.5837224816546,0.0010748571421161414,9.002771352279839e-09
1376.6511007338227,0.0010986632412591144,7.88713638220431e-09
1377.7184789859907,0.0011226441485985533,6.953357589486973e-09
1378.7858572381588,0.0011467842000302483,6.177388062707484e-09
1379.8532354903268,0.0011710715156098186,5.542753701577289e-09
1380.9206137424949,0.001195493826295796,5.035664925406721e-09
1381.9879919946632,0.0012200384811618397,4.644776563927138e-09
1383.0553702468312,0.001244692455351011,4.360984610602729e-09
1384.1227484989995,0.0012694423587719396,4.17725716451974e-09
1385.1901267511676,0.0012942744455362468,4.088497252568304e-09
1386.2575050033356,0.0013191746241340563,4.0914355709582734e-09
1387.3248832555037,0.0013441284683432394,4.184551515922152e-09
1388.3922615076717,0.0013691212288662335,4.3680211895241645e-09
1389.4596397598398,0.0013941378456867612,4.643691369605133e-09
1390.527018012008,0.0014191629611369316,5.015078724805033e-09
1391.594396264176,0.0014441809336635004,5.487393838069299e-09
1392.6617745163444,0.0014691744086163085,6.071853540233584e-09
1393.7291527685124,0.001494126301945382,6.776542089164101e-09
1394.7965310206805,0.0015190207174561278,7.610038112999448e-09
1395.8639092728486,0.0015438409972596445,8.585414101871379e-09
1396.9312875250166,0.0015685702819312722,9.717968788909284e-09
1397.9986657771847,0.0015931915282782507,1.102541289859081e-08
1399.066044029353,0.0016176875276731836,1.2528084576890177e-08
1400.133422281521,0.0016420409249297233,1.4249196265637275e-08
1401.2008005336893,0.001666234237693479,1.6215115054811873e-08
1402.2681787858573,0.001690249876319807,1.845567882378592e-08
1403.3355570380254,0.0017140701642091272,2.1004550766929823e-08
1404.4029352901935,0.001737677358568878,2.3899615191544423e-08
1405.4703135423615,0.0017610536715697788,2.7183417777747055e-08
1406.5376917945296,0.0017841812918624436,3.090365380155971e-08
1407.6050700466978,0.0018070424064204154,3.511370814477184e-08
1408.672448298866,0.00182960800900499,3.989614785897803e-08
1409.7398265510342,0.0018518633755652974,4.531487941858736e-08
1410.8072048032022,0.0018737970562048858,5.143343554071008e-08
1411.8745830553703,0.001895391473011932,5.8336044328575324e-08
1412.9419613075383,0.0019166291638063218,6.611645038377845e-08
1414.0093395597064,0.0019374928051577147,7.487888660884177e-08
1415.0767178118745,0.001957965235445566,8.473913646319253e-08
1416.1440960640427,0.0019780294779188053,9.58256936408798e-08
1417.2114743162108,0.0019976687637135435,1.0828102657271377e-07
1418.278852568379,0.0020168665547855677,1.2226295559973028e-07
1419.3462308205471,0.002035606566714081,1.3794615111773104e-07
1420.4136090727152,0.0020538727913337923,1.555237614529082e-07
1421.4809873248832,0.0020716495191523375,1.7520917969413464e-07
1422.5483655770513,0.002088921361509059,1.9723795917662643e-07
1423.6157438292194,0.0021056732724328963,2.218698877817909e-07
1424.6831220813876,0.0021218698824031876,2.49512185011003e-07
1425.7505003335557,0.0021375046803029352,2.8045876199900454e-07
1426.8178785857237,0.002152575194083045,3.150000008785121e-07
1427.885256837892,0.002167068030574882,3.535229155158863e-07
1428.95263509006,0.0021809702464062357,3.9645255546698656e-07
1430.0200133422281,0.0021942693670275026,4.4425533041566774e-07
1431.0873915943962,0.002206953405138357,4.974425808839978e-07
1432.1547698465645,0.0022190108784771252,5.565744088708436e-07
1433.2221480987325,0.0022304308269363096,6.222637823787267e-07
1434.2895263509006,0.0022412028289696246,6.951809280306331e-07
1435.3569046030686,0.0022513170172557945,7.76058026190351e-07
1436.424282855237,0.002260764093587099,8.656942231311238e-07
1437.491661107405,0.002269535342952191,9.649609748734027e-07
1438.559039359573,0.002277622646782521,1.074807737304128e-06
1439.626417611741,0.0022850184953363273,1.1962680171045832e-06
1440.6937958639094,0.002291689037999797,1.331000744099709e-06
1441.7611741160774,0.0022976399456981315,1.4801020711502874e-06
1442.8285523682455,0.002302880099575765,1.6446512355703794e-06
1443.8959306204135,0.0023074046348917033,1.8261053787906445e-06
1444.9633088725818,0.002311209345177337,2.026043561589041e-06
1446.0306871247499,0.0023142906887209805,2.2461753744920232e-06
1447.098065376918,0.002316645794045043,2.488350001656241e-06
1448.165443629086,0.0023182724643630416,2.7545657474393833e-06
1449.2328218812543,0.0023191691810085396,3.0469800335268e-06
1450.3002001334223,0.0023193351058282885,3.3679198729303556e-06
1451.3675783855904,0.00231877008253504,3.719892825440807e-06
1452.4349566377584,0.002317474637017243,4.105598437167284e-06
1453.5023348899267,0.002315449976606257,4.527940164625715e-06
1454.5697131420948,0.002312697988301285,4.9900377814545384e-06
1455.6370913942628,0.002309221235957929,5.495240263212192e-06
1456.7044696464309,0.0023049950823250762,6.049105444469631e-06
1457.7718478985992,0.002300037369682198,6.654908353571824e-06
1458.8392261507672,0.002294367203051279,7.315872519452116e-06
1459.9066044029353,0.0022879899072085637,8.036449688445148e-06
1460.9739826551033,0.0022809114526864812,8.821395137399972e-06
1462.0413609072716,0.0022731384467271783,9.675783236683149e-06
1463.1087391594397,0.0022646781232954554,1.0605023355641574e-05
1464.1761174116077,0.0022555383321733015,1.161487607451391e-05
1465.2434956637758,0.002245727527159996,1.271146966180388e-05
1466.310873915944,0.0022352547534029835,1.390131677094585e-05
1467.378252168112,0.00222412963388758,1.519133130466121e-05
1468.4456304202802,0.002212362355114632,1.6588845389789268e-05
1469.5130086724482,0.002199963651996856,1.8101626399529535e-05
1470.5803869246165,0.00218694479200665,1.9737893954063455e-05
1471.6477651767846,0.0021733175586089513,2.150633682435558e-05
1472.7151434289526,0.002159071239749092,2.3422092425155166e-05
1473.7825216811207,0.002144231495679353,2.5492759129444336e-05
1474.849899933289,0.0021288231823973604,2.7725857781900783e-05
1475.917278185457,0.0021128600350236383,3.0132205050115612e-05
1476.984656437625,0.0020963562083688536,3.272316960534292e-05
1478.0520346897931,0.002079326256759383,3.5510686316373386e-05
1479.1194129419614,0.0020617851134315294,3.850726960707904e-05
1480.1867911941295,0.0020437480695371917,4.172602584974814e-05
1481.2541694462975,0.002025230752804301,4.518066466046684e-05
1482.3215476984656,0.0020062491058952356,4.8885508957164144e-05
1483.3889259506338,0.001986819364508317,5.285550363568444e-05
1484.456304202802,0.001966958035265642,5.7106222714348244e-05
1485.52368245497,0.0019466818734323577,6.165387479302474e-05
1486.591060707138,0.0019260078605119672,6.65153066688084e-05
1487.6584389593063,0.00190495318176197,7.170800494707171e-05
1488.7258172114744,0.00188352137705222,7.726484371923231e-05
1489.7931954636424,0.0018617389411050454,8.319858933962101e-05
1490.8605737158105,0.0018396303722633927,8.952212768064087e-05
1491.9279519679787,0.001817213459749231,9.62555711953797e-05
1492.9953302201468,0.0017945060800515181,0.000103419641482674
1494.0627084723149,0.001771526174933366,0.00011103565463066632
1495.1300867244831,0.0017482917296711266,0.0001191255033531663
1496.1974649766512,0.0017248207515659418,0.00012771163576230242
1497.2648432288192,0.0017011312487653126,0.00013681703062483943
1498.3322214809873,0.0016772412094340076,0.00014646516895660018
1499.3995997331556,0.0016531685813101816,0.00015668000181800118
1500.4669779853236,0.001628931251682457,0.00016748591418203174
1501.5343562374917,0.0016045470278228536,0.0001789076847562473
1502.6017344896597,0.0015800336179077321,0.00019097044165384942
1503.669112741828,0.0015554086124582851,0.0002036996138208109
1504.736490993996,0.0015306863578401536,0.00021715005412130297
1505.8038692461641,0.0015058874768582831,0.00023133400449797467
1506.8712474983322,0.0014810307666849418,0.00024626481015062155
1507.9386257505005,0.001456133140732902,0.0002619685270844815
1509.0060040026685,0.001431211307799036,0.00027847118835237273
1510.0733822548366,0.0014062817573642944,0.00029579872795313446
1511.1407605070046,0.0013813607455949017,0.00031397690034990665
1512.208138759173,0.00135646428206179,0.0003330311956784698
1513.275517011341,0.00133160811719464,0.0003529867507443236
1514.342895263509,0.0013068077304839985,0.00037386825593334555
1515.410273515677,0.0012820783194442866,0.0003956998581877603
1516.4776517678454,0.001257434789347935,0.0004185050602278748
1517.5450300200134,0.001232891743738092,0.000442306616229645
1518.6124082721815,0.0012084634757282393,0.0004671264241968781
1519.6797865243495,0.0011841639600919953,0.0004929854152974908
1520.7471647765178,0.0011600132710220066,0.0005199478547683644
1521.8145430286859,0.0011360222807851829,0.0005480086545884822
1522.881921280854,0.0011122013838173984,0.0005771662058077576
1523.949299533022,0.0010885631635226473,0.0006074361669015657
1525.0166777851903,0.0010651198566905854,0.0006388326178210379
1526.0840560373583,0.0010418833505070244,0.0006713679383706765
1527.1514342895264,0.0010188651803324693,0.0007050526863992016
1528.2188125416944,0.0009960765282392993,0.0007398954763084245
1529.2861907938627,0.000973528222295173,0.0007759028584109209
1530.3535690460308,0.0009512307365777944,0.0008130791996876335
1531.4209472981988,0.0009291941919070564,0.0008514265665180256
1532.4883255503669,0.0009074283572766435,0.0008909446099717162
1533.5557038025352,0.0008859426519667582,0.0009316304542668767
1534.6230820547032,0.0008647461483177997,0.0009734785890129876
1535.6904603068713,0.0008438475751436181,0.0010164807658659806
1536.7578385590393,0.0008232684646474151,0.0010606730684213788
1537.8252168112076,0.0008030098303888862,0.0011060119578991969
1538.8925950633757,0.0007830741071283855,0.0011524604227764268
1539.9599733155437,0.0007634686456620983,0.0011999978375884545
1541.0273515677118,0.0007442004804299513,0.0012486003981257274
1542.09472981988,0.0007252763363469797,0.001298241059992838
1543.162108072048,0.0007067026360796012,0.0013488894861294121
1544.2294863242162,0.0006884855077348111,0.0014005120038677445
1545.2968645763842,0.0006706307929303549,0.001453071572079889
1546.3642428285525,0.0006531440552129177,0.001506527758938315
1547.4316210807206,0.0006360305887903608,0.0015608367307819186
1548.4989993328886,0.0006192954275435425,0.0016159512525438216
1549.5663775850567,0.0006029433542825952,0.0016718207001568492
1550.633755837225,0.0005869789102124677,0.001728391085309823
1551.701134089393,0.0005714064045704286,0.0017856050928805101
1552.768512341561,0.0005562468738654097,0.0018434240928033537
1553.8358905937291,0.0005414941856391374,0.001901764455255591
1554.9032688458974,0.0005271454503439155,0.0019605492206167673
1555.9706470980655,0.0005132041193741238,0.002019707941259993
1557.0380253502335,0.0004996734636308259,0.0020791672515741884
1558.1054036024016,0.000486556583400389,0.0021388509884301835
1559.1727818545698,0.00047385641813601034,0.0021986803249774392
1560.240160106738,0.0004615757561064249,0.00225857391759566
1561.307538358906,0.0004497172438737239,0.002318448065755756
1562.374916611074,0.0004382833955652281,0.0023782168844751358
1563.4422948632423,0.0004272766019029471,0.002437792488982909
1564.5096731154104,0.0004166991389553226,0.0024970851911409664
1565.5770513675784,0.0004065531765773157,0.0025560037070987518
1566.6444296197465,0.00039684078650393845,0.002614455375591149
1567.7118078719147,0.0003875639500649175,0.002672346386222906
1568.7791861240828,0.0003787434406969641,0.0027295496976732017
1569.8465643762509,0.0003703693548156373,0.0027859810749993373
1570.913942628419,0.00036243648040665033,0.0028415552134217407
1571.9813208805872,0.0003549464965369855,0.0028961761884657646
1573.0486991327552,0.0003479010246061644,0.0029497482448358633
1574.1160773849233,0.00034130163300738974,0.0030021760683347984
1575.1834556370914,0.0003351498412010388,0.0030533650612613902
1576.2508338892596,0.0003294471231785857,0.003103221620204008
1577.3182121414277,0.0003241949102942585,0.003151653415114388
1578.3855903935957,0.0003193945934457871,0.003198569668522179
1579.4529686457638,0.00031504752458596407,0.0032438814337308985
1580.520346897932,0.0003111550175493001,0.0032875018708221748
1581.5877251501001,0.0003077183481800248,0.0033293465192896004
1582.6551034022682,0.0003047387537485936,0.0033693335661224974
1583.7224816544363,0.0003022174316484331,0.003407384108163445
1584.7898599066045,0.00030017559683547776,0.0034433315687842363
1585.8572381587726,0.00029860145128379745,0.003477155908060859
1586.9246164109406,0.000297489017480183,0.003508819936674155
1587.9919946631087,0.0002968392964186739,0.0035382595135644342
1589.059372915277,0.000296653230539668,0.0035654146341543612
1590.126751167445,0.0002969316978516094,0.003590229631671942
1591.194129419613,0.0002976755053303493,0.0036126533649937613
1592.2615076717811,0.00029888538160810333,0.003632639392130156
1593.3288859239494,0.00030056196896255144,0.0036501461285374593
1594.3962641761175,0.0003027058146234098,0.0036651369895085877
1595.4636424282855,0.0003053173614136733,0.003677580515966882
1596.5310206804536,0.00030839693774642875,0.0036874504830640524
1597.5983989326219,0.0003119447470013491,0.0036947259910624915
1598.66577718479,0.00031596085630580714,0.00369939153806625
1599.733155436958,0.0003204451847512003,0.0037014370742499705
1600.800533689126,0.00032541813075281966,0.003700742221554337
1601.8679119412943,0.0003308654613955521,0.0036973857660934457
1602.9352901934624,0.0003367796584985756,0.003691413640557571
1604.0026684456304,0.00034315988671527694,0.003682838626418352
1605.0700466977985,0.00035000509355134307,0.0036716789324347317
1606.1374249499668,0.00035731399486873736,0.0036579581311347903
1607.2048032021348,0.00036508506011091453,0.0036417050769595688
1608.2721814543029,0.00037331649729837327,0.0036229538064636332
1609.339559706471,0.0003820062378462616,0.0036017434210488526
1610.4069379586392,0.0003911519212568046,0.003578117952792469
1611.4743162108073,0.00040075087974269754,0.0035521262140068006
1612.5416944629753,0.0004108001228372374,0.0035238216312423864
1613.6090727151434,0.00042129632205090394,0.003493262064518077
1614.6764509673117,0.0004322357956338301,0.003460509612624284
1615.7438292194797,0.00044361449350449345,0.0034256304054081574
1616.8112074716478,0.0004554472125681076,0.0033886057109854695
1617.8785857238158,0.0004677154509397068,0.003349577245587646
1618.9459639759841,0.0004804077611434457,0.003308651347102982
1620.0133422281522,0.0004935184048361292,0.0032659084060070414
1621.0807204803202,0.0005070412021738565,0.003221431592238228
1622.1480987324883,0.000520969519226992,0.0031753065898313805
1623.2154769846566,0.0005352962560277004,0.003127621326411549
1624.2828552368246,0.0005500138353153752,0.00307846569872735
1625.3502334889927,0.0005651141920427829,0.0030279312954034515
1626.4176117411607,0.0005805887637066156,0.002976111118089834
1627.484989993329,0.0005964284815629546,0.002923099302173554
1628.552368245497,0.000612623762789093,0.0028689908382041394
1629.6197464976651,0.0006291645036492368,0.0028138812951602338
1630.6871247498332,0.0006460400737212604,0.002757866546657875
1631.7545030020015,0.0006632393112396671,0.0027010425011670092
1632.8218812541695,0.0006807640968174698,0.002643476864741633
1633.8892595063376,0.0006985914178366521,0.0025852937362355367
1634.9566377585056,0.0007167042051347799,0.0025265969840689495
1636.024016010674,0.0007350890644402538,0.002467479873204495
1637.091394262842,0.0007537320659699929,0.0024080344041276726
1638.15877251501,0.0007726187478048581,0.0023483510894693285
1639.226150767178,0.0007917341206920336,0.00228851874095172
1640.2935290193464,0.0008110626743030463,0.0022286242672809957
1641.3609072715144,0.0008305883849704206,0.0021687524835429226
1642.4282855236825,0.0008502947249236798,0.0021089859325900866
1643.4956637758505,0.0008701646730389765,0.0020494047188401535
1644.5630420280188,0.0008901807271130138,0.0019900863548347795
1645.6304202801869,0.0009103249176669274,0.0019311056208389727
1646.697798532355,0.0009305788232803672,0.001872534437691635
1647.765176784523,0.0009509235874518259,0.0018144417530500392
1648.8325550366912,0.0009713423093178617,0.0017569213471535564
1649.8999332888593,0.0009918116318207572,0.0017000217802904426
1650.9673115410274,0.0010123105435663055,0.0016437949064149976
1652.0346897931954,0.0010328185953302523,0.001588296382726561
1653.1020680453637,0.0010533150146565882,0.0015335785192940985
1654.1694462975317,0.0010737787318125995,0.0014796902479991124
1655.2368245496998,0.0010941884070803899,0.0014266771039984484
1656.3042028018679,0.0011145224593373945,0.001374581219356949
1657.3715810540361,0.0011347590958732609,0.0013234413284553567
1658.4389593062042,0.0011548763433846987,0.0012732927847363413
1659.5063375583723,0.0011748520800859887,0.0012241675883141493
1660.5737158105403,0.001194664068867477,0.0011760944239395889
1661.6410940627086,0.0012142899914299999,0.0011290987087813032
1662.7084723148766,0.0012337074833191958,0.0010832026494593228
1663.7758505670447,0.0012528941697781742,0.001038425307743625
1664.8432288192128,0.0012718148829024846,0.0009948360473741812
1665.910607071381,0.0012904545423219741,0.0009524096855061146
1666.977985323549,0.001308794133710236,0.0009111418384306433
1668.0453635757171,0.0013268116424060936,0.0008710393728974583
1669.1127418278852,0.0013444852396975867,0.0008321064687838295
1670.1801200800535,0.0013617933217280453,0.0007943447247251807
1671.2474983322215,0.0013787145485315083,0.0007577532678420497
1672.3148765843896,0.0013952278830942544,0.0007223288669414949
1673.3822548365576,0.0014113126303345982,0.0006880660485811522
1674.449633088726,0.001426948475894335,0.0006549572153978313
1675.517011340894,0.001442115524632918,0.0006229927661203859
1676.584389593062,0.0014567943387167707,0.000592161216703595
1677.65176784523,0.001470965975194293,0.0005624493220437212
1678.7191460973984,0.0014846120229489851,0.0005338421977553804
1679.7865243495664,0.0014977146389235012,0.0005063234415188524
1680.8539026017345,0.0015102293930564525,0.0004799247545080749
1681.9212808539025,0.001522158483257486,0.0004545879065430417
1682.9886591060708,0.0015334927034929145,0.00043027990400906833
1684.0560373582389,0.0015442169440181904,0.0004069793183088362
1685.123415610407,0.0015543168355843834,0.0003846638097026227
1686.190793862575,0.001563778778787784,0.000363310236489439
1687.2581721147433,0.0015725899719724048,0.0003428947610139497
1688.3255503669113,0.0015807384375981209,0.00032339295224495887
1689.3929286190794,0.001588213046993944,0.0003047798847007079
1690.4603068712474,0.0015950035434193972,0.00028703023352652686
1691.5276851234157,0.0016011005633615003,0.0002701183655582945
1692.5950633755838,0.0016064956560007757,0.0002540184262334027
1693.6624416277518,0.0016111813007853128,0.00023870442223811357
1694.72981987992,0.0016151509230560022,0.0002241502998068244
1695.7971981320882,0.0016183989076734105,0.00021033001861291408
1696.8645763842562,0.0016208858085801502,0.00019725012618483732
1697.9319546364243,0.0016226343327514097,0.00018485735705769008
1698.9993328885923,0.0016236500870296317,0.00017311825432664705
1700.0667111407606,0.0016239315467552814,0.0001620075331221813
1701.1340893929287,0.0016234781837479641,0.00015150023422932994
1702.2014676450967,0.0016222904667233338,0.00014157177052852312
1703.2688458972648,0.0016203698595396803,0.00013219796923635068
1704.336224149433,0.0016177188172767107,0.00012335511004652437
1705.4036024016011,0.0016143407801576769,0.00011501995928278883
1706.4709806537692,0.0016102401653319157,0.00010716980018717725
1707.5383589059372,0.001605422356541239,9.978245947702002e-05
1708.6057371581055,0.0015998936917007516,9.28363303117354e-05
1709.6731154102736,0.0015936614484305467,8.631039181912363e-05
1710.7404936624416,0.0015867338275804045,8.018422533531549e-05
1711.8078719146097,0.0015791199347977023,7.443802751821631e-05
1712.875250166778,0.0015707976493829947,6.90691296019703e-05
1713.942628418946,0.0015618040693481036,6.404429034339955e-05
1715.010006671114,0.0015521581718315324,5.934189419066925e-05
1716.0773849232821,0.0015418725833605826,5.494477451226155e-05
1717.1447631754504,0.0015309607100261065,5.0836403940178275e-05
1718.2121414276185,0.0015194367082976652,4.700089173623938e-05
1719.2795196797865,0.0015073154543992463,4.3422979234746735e-05
1720.3468979319546,0.0014946125123342837,4.008803352116212e-05
1721.4142761841229,0.0014813441006542823,3.698203950280912e-05
1722.481654436291,0.0014675270580671066,3.409159052342069e-05
1723.549032688459,0.0014531788079845415,3.1403877668660985e-05
1724.616410940627,0.0014383173221107506,2.8906677904695697e-05
1725.6837891927953,0.0014229610831755155,2.6588341186391484e-05
1726.7511674449634,0.0014071290469180172,2.443777666600075e-05
1727.8185456971314,0.001390840603427185,2.244443812717134e-05
1728.8859239492995,0.0013740952012047825,2.060503164118666e-05
1729.9533022014677,0.0013569312335884808,1.8903792503020787e-05
1731.0206804536358,0.0013393735566393488,1.7330324600745858e-05
1732.0880587058039,0.0013214429379232876,1.5876175842600536e-05
1733.155436957972,0.001303160372144016,1.4533354852750097e-05
1734.2228152101402,0.0012845470409229955,1.329431400928824e-05
1735.2901934623083,0.0012656242727162575,1.2151932423791304e-05
1736.3575717144763,0.0012464135029715947,1.1099498934529268e-05
1737.4249499666444,0.0012269362346262638,1.0130695179358695e-05
1738.4923282188126,0.00120721399904411,9.239578808415526e-06
1739.5597064709807,0.0011872683174874105,8.420566890989228e-06
1740.6270847231488,0.001167120663215622,7.668419565436564e-06
1741.6944629753168,0.0011467924243009353,6.978223975688806e-06
1742.761841227485,0.0011263048672452989,6.3453785328139266e-06
1743.8292194796531,0.0011056791014815235,5.7655775352663316e-06
1744.8965977318212,0.001084931278033794,5.2370322808388415e-06
1745.9639759839893,0.001064088038329431,4.7538156930593425e-06
1747.0313542361575,0.0010431708640490985,4.312000007960824e-06
1748.0987324883256,0.0010221998502493962,3.90835249106791e-06
1749.1661107404937,0.0010011947675411508,3.5398631080355726e-06
1750.2334889926617,0.0009801750336897236,3.2037318781466364e-06
1751.30086724483,0.0009591596865602089,2.8973567085048254e-06
1752.368245496998,0.000938167358450601,2.6183217121263633e-06
1753.435623749166,0.0009172162518524345,2.3643860106343265e-06
1754.5030020013342,0.0008963241166705906,2.1334730199777005e-06
1755.5703802535024,0.0008755082289314462,1.9236602155411627e-06
1756.6377585056705,0.0008547853710015485,1.7331693711703605e-06
1757.7051367578385,0.0008341718133350409,1.5603572649982274e-06
1758.7725150100066,0.0008136832977622256,1.4037068435093617e-06
1759.8398932621749,0.0007933350223276573,1.261818834018608e-06
1760.907271514343,0.000773150086106613,1.1340179553060047e-06
1761.974649766511,0.0007531369814266581,1.0184990800029747e-06
1763.042028018679,0.0007333077308983097,9.140660602128823e-07
1764.1094062708473,0.0007136751423023153,8.197281920658737e-07
1765.1767845230154,0.0006942514258544381,7.345757505860057e-07
1766.2441627751834,0.0006750481885890874,6.57774120886116e-07
1767.3115410273517,0.0006560764302086583,5.885582829078677e-07
1768.3789192795198,0.0006373465403720799,5.262276351226787e-07
1769.4462975316878,0.0006188682973888794,4.7014114256241666e-07
1770.513675783856,0.0006006508682839955,4.1971279458395035e-07
1771.5810540360242,0.0005827028101944517,3.7440735787650373e-07
1772.6484322881922,0.0005650320730567921,3.33736410389752e-07
1773.7158105403603,0.0005476460035399855,2.972546420876307e-07
1774.7831887925283,0.0005305513501783776,2.645564087081564e-07
1775.8505670446966,0.0005137542696537783,2.3527252502610303e-07
1776.9179452968647,0.0004972759336281208,2.0920756161158042e-07
1777.9853235490327,0.00048110873580974197,1.8591048019320355e-07
1779.0527018012008,0.00046525451697509925,1.6508332229544499e-07
1780.120080053369,0.0004497170647131707,1.4647865372197103e-07
1781.1874583055371,0.0004344996240247452,1.2987221078977022e-07
1782.2548365577052,0.0004196049095611115,1.1506090556400905e-07
1783.3222148098732,0.00040503511861055225,1.0186098456194325e-07
1784.3895930620415,0.0003907919447744961,9.010633096169118e-08
1785.4569713142096,0.0003768765922734936,7.964690081627e-08
1786.5243495663776,0.00036328979082546,7.034728423473341e-08
1787.5917278185457,0.000350031811037054,6.208538294831966e-08
1788.659106070714,0.0003371024802503837,5.4751196128118976e-08
1789.726484322882,0.0003245011987883451,4.8245706760263494e-08
1790.79386257505,0.00031222695654145827,4.2479861313475246e-08
1791.8612408272181,0.00030027834984088625,3.737363585071905e-08
1792.9286190793864,0.0002886700717513284,3.2881955849441365e-08
1793.9959973315545,0.0002773857131649611,2.8911595700691896e-08
1795.0633755837225,0.0002664202645860411,2.540128073848281e-08
1796.1307538358906,0.000255770872879805,2.2300116437896918e-08
1797.1981320880589,0.0002454343816640965,1.956254712146062e-08
1798.265510340227,0.00023540734879467815,1.7147830093615767e-08
1799.332888592395,0.0002256860637770016,1.5019557694748556e-08
1800.400266844563,0.000216266565062379,1.3145223333436093e-08
1801.4676450967313,0.00020714465718788105,1.1495827834477969e-08
1802.5350233488994,0.0001983159277227577,1.0045522704197845e-08
1803.6024016010674,0.00018977576398462748,8.771287163699374e-09
1804.6697798532355,0.00018151936949234275,7.652636035609166e-09
1805.7371581054038,0.0001735417801237033,6.6713557907462725e-09
1806.8045363575718,0.00016583787994886093,5.8112662685823366e-09
1807.8719146097399,0.00015840241671168833,5.058005779748451e-09
1808.939292861908,0.00015124335662066376,4.403122556518379e-09
1810.0066711140762,0.00014434311667609563,3.8305861704191934e-09
1811.0740493662443,0.00013769425656379452,3.329927946141912e-09
1812.1414276184123,0.00013129111591519038,2.892465882535182e-09
1813.2088058705804,0.0001251279719475198,2.5105223122302674e-09
1814.2761841227486,0.00011919905227504598,2.1773133181274497e-09
1815.3435623749167,0.00011349854723717755,1.886849639475991e-09
1816.4109406270848,0.00010802062173428142,1.6338479554065793e-09
1817.4783188792528,0.00010275942656301116,1.4136515320159282e-09
1818.545697131421,9.770910924607713e-05,1.2221593097148823e-09
1819.6130753835891,9.286382435176066e-05,1.0557625910235424e-09
1820.6804536357572,8.821774330183868e-05,9.112885657720087e-10
1821.7478318879253,8.37650636667038e-05,7.859499812007146e-10
1822.8152101400935,7.950001794870908e-05,6.773003291569607e-10
1823.8825883922616,7.541688185645109e-05,5.831939818719674e-10
1824.9499666444297,7.151891805737672e-05,5.023273477973958e-10
1826.0173448965977,6.77920969031326e-05,4.323977466489027e-10
1827.084723148766,6.422974081665742e-05,3.7191258663737285e-10
1828.152101400934,6.082638345337314e-05,3.196374690624635e-10
1829.219479653102,5.7576636641361786e-05,2.744936374948018e-10
1830.2868579052702,5.447519561631453e-05,2.35539123071856e-10
1831.3542361574384,5.151684380226807e-05,2.0195207243158357e-10
1832.4216144096065,4.869645714972901e-05,1.7301601863093685e-10
1833.4889926617745,4.6009008043461716e-05,1.4810688008747906e-10
1834.5563709139426,4.3449568792882636e-05,1.2668149492706742e-10
1835.6237491661109,4.10133147185257e-05,1.082675183168836e-10
1836.691127418279,3.8695526848547287e-05,9.245452859822784e-11
1837.758505670447,3.6491594239634374e-05,7.888620447844713e-11
1838.825883922615,3.439701593701359e-05,6.725345035568878e-11
1839.8932621747833,3.240740258853432e-05,5.7288360180655406e-11
1840.9606404269514,3.0523589705417126e-05,4.882427885778035e-11
1842.0280186791194,2.873644322307585e-05,4.158403667199164e-11
1843.0953969312875,2.704134210235034e-05,3.5389444467503046e-11
1844.1627751834558,2.5434371331964608e-05,3.0093690176254495e-11
1845.2301534356238,2.391173088257896e-05,2.556995635452669e-11
1846.297531687792,2.2469735510278165e-05,2.17087861202478e-11
1847.36490993996,2.1104814325340347e-05,1.8415783555154334e-11
1848.4322881921282,1.9813510141202815e-05,1.560960782778158e-11
1849.4996664442963,1.859247861833693e-05,1.3220225025259953e-11
1850.5670446964643,1.7438487217466006e-05,1.1187385894474392e-11
1851.6344229486324,1.6348413976270503e-05,9.459301439607973e-12
1852.7018012008007,1.5319246123396796e-05,7.991491651544932e-12
1853.7691794529687,1.4348078543238103e-05,6.745785598716094e-12
1854.8365577051368,1.3432112104562967e-05,5.689453728144196e-12
1855.9039359573048,1.2568651865693183e-05,4.79445554538444e-12
1856.9713142094731,1.1757644423150296e-05,4.0430383953593116e-12
1858.0386924616412,1.0994055134816138e-05,3.407178851383337e-12
1859.1060707138092,1.027524140683001e-05,2.8690191875496395e-12
1860.1734489659773,9.598919787636921e-06,2.413912545975598e-12
1861.2408272181456,8.962900142418278e-06,2.0293511111569647e-12
1862.3082054703136,8.365083348740575e-06,1.7046623964885792e-12
1863.3755837224817,7.80345894762883e-06,1.4307473539750651e-12
1864.4429619746497,7.276102758972729e-06,1.199854738571686e-12
1865.510340226818,6.781174469691629e-06,1.0053868726388493e-12
1866.577718478986,6.3169152026160355e-06,8.417325823228226e-13
1867.6450967311541,5.881645073572278e-06,7.041236265279193e-13
1868.7124749833222,5.47376074369599e-06,5.885114196576712e-13
1869.7798532354905,5.091732973544018e-06,4.914612695726707e-13
1870.8472314876585,4.734104185126013e-06,4.1006171945235036e-13
1871.9146097398266,4.399486037538169e-06,3.4184690283965493e-13
1872.9819879919946,4.087663106118505e-06,2.852350918803642e-13
1874.049366244163,3.7962409221916126e-06,2.3784186737201075e-13
1875.116744496331,3.52393221815128e-06,1.981618320035181e-13
1876.184122748499,3.2696107986392655e-06,1.6496656920440816e-13
1877.251501000667,3.0322075091641003e-06,1.3721888875813985e-13
1878.3188792528354,2.8107079997588928e-06,1.1404377140370074e-13
1879.3862575050034,2.604150531458447e-06,9.470361509130148e-14
1880.4536357571715,2.4116238281207276e-06,7.857716365487731e-14
1881.5210140093395,2.2322649758025255e-06,6.514158511219686e-14
1882.5883922615078,2.0652573716000813e-06,5.395724158579263e-14
1883.6557705136759,1.909828723579795e-06,4.465475747047485e-14
1884.723148765844,1.7652491031570458e-06,3.692404828222529e-14
1885.790527018012,1.6308290510250764e-06,3.050502076955483e-14
1886.8579052701803,1.5059177374986287e-06,2.5179696365877478e-14
1887.9252835223483,1.3899011779085307e-06,2.076554579633225e-14
1888.9926617745164,1.2826257277164707e-06,1.714435501541917e-14
1890.0600400266844,1.18309765496719e-06,1.4145125137380635e-14
1891.1274182788527,1.090774022547369e-06,1.166093628788302e-14
1892.1947965310208,1.0051759756702594e-06,9.605028923989853e-15
1893.2621747831888,9.258531272269847e-07,7.904967603400342e-15
1894.3295530353569,8.523821190587834e-07,6.50032547919084e-15
1895.3969312875251,7.843652374549023e-07,5.340734823183872e-15
1896.4643095396932,7.214290821754474e-07,4.384247080634965e-15
1897.5316877918613,6.632232882019407e-07,3.595954458549058e-15
1898.5990660440293,6.09419299320087e-07,2.9468323059935263e-15
1899.6664442961976,5.597091925572585e-07,2.41276773369872e-15
1900.7338225483657,5.138045524272203e-07,1.9737451943436147e-15
1901.8012008005337,4.7143539386801174e-07,1.6131642354083379e-15
1902.8685790527018,4.3234913270718284e-07,1.3172684564201783e-15
1903.93595730487,3.9630960243860993e-07,1.0746679490409926e-15
1905.003335557038,3.632410308237697e-07,8.779352784112882e-16
1906.0707138092062,3.327809111535943e-07,7.167214785125498e-16
1907.1380920613742,3.047289836618144e-07,5.846200471215611e-16
1908.2054703135425,2.7890769119888756e-07,4.764636079323349e-16
1909.2728485657105,2.5515148284682133e-07,3.8798575230116494e-16
1910.3402268178786,2.333060901912103e-07,3.156668453689104e-16
1911.4076050700467,2.1322784033530086e-07,2.5660571143369536e-16
1912.474983322215,1.9478300431253278e-07,2.084129436106889e-16
1913.542361574383,1.7784717956692286e-07,1.69122267267536e-16
1914.609739826551,1.6230470517769267e-07,1.37116963621991e-16
1915.677118078719,1.480481085240859e-07,1.1106884571164243e-16
1916.7444963308874,1.3497758210307946e-07,8.988768771703975e-17
1917.8118745830554,1.230004892346887e-07,7.267935226157849e-17
1918.8792528352235,1.1203089741338215e-07,5.871114894978627e-17
1919.9466310873916,1.0198913808984391e-07,4.738319963283528e-17
1921.0140093395598,9.284531101071407e-08,3.8302493591512866e-17
1922.081387591728,8.448259016681779e-08,3.0939921458036345e-17
1923.148765843896,7.683595370798623e-08,2.4971283259411605e-17
1924.216144096064,6.984755944147011e-08,2.0136737840844793e-17
1925.2835223482323,6.346392355308347e-08,1.6224112234920578e-17
1926.3509006004003,5.763561953077783e-08,1.3060300389701228e-17
1927.4182788525684,5.231699559557562e-08,1.0504187427993263e-17
1928.4856571047364,4.7465909687753104e-08,8.440833694832053e-18
1929.5530353569047,4.3043481090389594e-08,6.776698273803102e-18
1930.6204136090728,3.901385780663733e-08,5.4357194660638695e-18
1931.6877918612408,3.5343998841172394e-08,4.356101176982077e-18
1932.755170113409,3.2003470570061435e-08,3.487680292218601e-18
1933.8225483655772,2.8964256416762672e-08,2.7897718271890295e-18
1934.8899266177452,2.6200579084963333e-08,2.229406638114757e-18
1935.9573048699133,2.3688734631390054e-08,1.779891406567834e-18
1937.0246831220813,2.1418803055381163e-08,1.4236880478028593e-18
1938.0920613742496,1.935740118282554e-08,1.1379237970844753e-18
1939.1594396264177,1.7485858724223867e-08,9.087300795282659e-19
1940.2268178785857,1.578753556405813e-08,7.250647959553455e-19
1941.2941961307538,1.4247168651158232e-08,5.780103058387372e-19
1942.361574382922,1.2850765601880858e-08,4.603707081428571e-19
1943.4289526350901,1.1585505844898053e-08,3.6634430171282653e-19
1944.4963308872582,1.0439648831888418e-08,2.91257412231607e-19
1945.5637091394262,9.402448863477671e-09,2.3134826890098996e-19
1946.6310873915945,8.46407610392567e-09,1.835916668424701e-19
1947.6984656437626,7.615543381303052e-09,1.4555683805265655e-19
1948.7658438959306,6.84863839221241e-09,1.152923386626773e-19
1949.8332221480987,6.1558609515516256e-09,9.123289631858675e-20
1950.900600400267,5.5303649483179715e-09,7.212409263682077e-20
1951.967978652435,4.965904688104501e-09,5.696151821339795e-20
1953.035356904603,4.4596480784524656e-09,4.508436072564699e-20
1954.1027351567711,4.003113585922546e-09,3.565597868800312e-20
1955.1701134089394,3.591544154185416e-09,2.8174475517288423e-20
1956.2374916611075,3.2206965957356213e-09,2.2242973483526643e-20
1957.3048699132755,2.8867092322911074e-09,1.754444730673218e-20
1958.3722481654436,2.5860694624992605e-09,1.3825871448689127e-20
1959.4396264176119,2.3155839076313425e-09,1.0885471564156842e-20
1960.50700466978,2.072350946945473e-09,8.562480842755117e-21
1961.574382921948,1.8537354666608825e-09,6.7289159755882685e-21
1962.641761174116,1.657345658090346e-09,5.282980125135233e-21
1963.7091394262843,1.4810117114292147e-09,4.143775500936088e-21
1964.7765176784524,1.3227662620371033e-09,3.2470691713744047e-21
1965.8438959306204,1.1808264557912925e-09,2.5419052105271363e-21
1966.9112741827885,1.053577509264927e-09,1.9878963439865327e-21
1967.9786524349568,9.395576491152444e-10,1.5530606787454983e-21
1969.0460306871248,8.380620441185956e-10,1.2163549377354247e-21
1970.1134089392929,7.471706819769352e-10,9.518681052222532e-22
1971.180787191461,6.65805272949177e-10,7.442240131440271e-22
1972.2481654436292,5.930040490674466e-10,5.813493474562841e-22
1973.3155436957973,5.278984038136905e-10,4.5370468579676665e-22
1974.3829219479653,4.697042811363916e-10,3.537591264597015e-22
1975.4503002001334,4.1771431832141004e-10,2.755725005040813e-22
1976.5176784523017,3.712906808756564e-10,2.1446341584695733e-22
1977.5850567044697,3.298585322578763e-10,1.6674572244922398e-22
1978.6524349566378,2.929000856492243e-10,1.295194735745416e-22
1979.7198132088058,2.5994918901675365e-10,1.0050525542717153e-22
1980.787191460974,2.3058639850202215e-10,7.791300036482464e-23
1981.8545697131422,2.0443449868178972e-10,6.033819570844381e-23
1982.9219479653102,1.8115443151379444e-10,4.6679838424171564e-23
1983.9893262174783,1.6044159881383152e-10,3.6075636210888374e-23
1985.0567044696465,1.4214185180432158e-10,2.795877255103019e-23
1986.1240827218146,1.2586726456280805e-10,2.164942881131629e-23
1987.1914609739827,1.1139996024076781e-10,1.674859681272442e-23
1988.2588392261507,9.854574593887852e-11,1.2945232468388472e-23
1989.326217478319,8.71305571943012e-11,9.996231272097386e-24
1990.393595730487,7.699845327750979e-11,7.711752633677244e-24
1991.460973982655,6.800980334265523e-11,5.943678669996068e-24
1992.5283522348232,6.003964618570879e-11,4.576545673768795e-24
1993.5957304869914,5.2976207828734454e-11,3.520424560418528e-24
1994.6631087391595,4.671956249785319e-11,2.7053362099687178e-24
1995.7304869913276,4.118042380472892e-11,2.0768745697397998e-24
1996.7978652434956,3.6279054084614334e-11,1.592779293949188e-24
1997.865243495664,3.194428089496568e-11,1.2202542641851317e-24
1998.932621747832,2.811261064447549e-11,9.338715086153904e-25
2000.0,2.4727430209088596e-11,7.139341676516866e-25
