eje_x,aspirin_ftir,aspirin_raman
1,2.9090309995293873e-13,
2,3.600137924448935e-13,
3,4.453511404067371e-13,
4,5.506497119890168e-13,
5,6.804812007474714e-13,
6,8.404361980655577e-13,
7,1.0373440059564557e-12,
8,1.279538121846882e-12,
9,1.5771764855242108e-12,
10,1.942627300486685e-12,
11,2.3909332719747594e-12,
12,2.940369493389077e-12,
13,3.613113020908187e-12,
14,4.436045471140881e-12,
15,5.441713836974393e-12,
16,6.669479232273779e-12,
17,8.166888549578973e-12,
18,9.991310163836884e-12,
19,1.2211881973292629e-11,
20,1.4911828388067373e-11,
21,1.8191212530298727e-11,
22,2.2170201092444376e-11,
23,2.6992932233245848e-11,
24,3.283209182277767e-11,
25,3.989432055881024e-11,
26,4.8426594280370496e-11,
27,5.872374255224314e-11,
28,7.113729667850348e-11,
29,8.608588816079538e-11,
30,1.0406745273309016e-10,
31,1.25673534016409e-10,
32,1.5160602513793258e-10,
33,1.8269673700271108e-10,
34,2.199302390104656e-10,
35,2.644704826604796e-10,
36,3.1769179154128877e-10,
37,3.8121488359109425e-10,
38,4.5694868424919865e-10,
39,5.471387932887475e-10,
40,6.544235848984498e-10,
41,7.818990512211797e-10,
42,9.331936453976888e-10,
43,1.1125545426236403e-09,
44,1.3249469183045415e-09,
45,1.57616804265861e-09,
46,1.872978212709064e-09,
47,2.2232507872239332e-09,
48,2.636143859546645e-09,
49,3.122296399191774e-09,
50,3.694052017351671e-09,
51,4.365713865856665e-09,
52,5.153834565414358e-09,
53,6.077545478817482e-09,
54,7.158930099861716e-09,
55,8.423446820428961e-09,
56,9.900406867865788e-09,
57,1.1623513773496856e-08,
58,1.3631471341656956e-08,
59,1.5968667737461713e-08,
60,1.8685944000715777e-08,
61,2.1841456022464793e-08,
62,2.55016397887438e-08,
63,2.9742290501459693e-08,
64,3.4649767026718884e-08,
65,4.032233399311623e-08,
66,4.6871654762471524e-08,
67,5.442444941813801e-08,
68,6.312433285509448e-08,
69,7.313384900418378e-08,
70,8.463671817125443e-08,
71,9.784031541048409e-08,
72,1.1297839876809249e-07,
73,1.303141071146572e-07,
74,1.5014324811638346e-07,
75,1.7279789766113037e-07,
76,1.986503327352218e-07,
77,2.2811732032163837e-07,
78,2.616647853366825e-07,
79,2.998128809174109e-07,
80,3.4314148448615866e-07,
81,3.922961429326464e-07,
82,4.4799448992640603e-07,
83,5.110331577803596e-07,
84,5.822952054023687e-07,
85,6.627580826399883e-07,
86,7.53502149748068e-07,
87,8.557197687090344e-07,
88,9.70724980718367e-07,
89,1.0999637812496628e-06,
90,1.2450250007152388e-06,
91,1.407651794804711e-06,
92,1.5897537440768572e-06,
93,1.7934195572873008e-06,
94,2.020930367219008e-06,
95,2.2747736014176043e-06,
96,2.5576574032362513e-06,
97,2.8725255709047627e-06,
98,3.2225729740036603e-06,
99,3.611261397710127e-06,
100,4.042335755528619e-06,
101,4.519840600923649e-06,
102,5.048136857399439e-06,
103,5.631918675115259e-06,
104,6.276230310207999e-06,
105,6.986482910600587e-06,
106,7.768471079372936e-06,
107,8.628389073774054e-06,
108,9.57284648483263e-06,
109,1.0608883229356511e-05,
110,1.1743983673055832e-05,
111,1.2986089690721092e-05,
112,1.4343612457011425e-05,
113,1.5825442749611938e-05,
114,1.7440959535517163e-05,
115,1.9200036601172985e-05,
116,2.1113046978370347e-05,
117,2.3190864910362728e-05,
118,2.5444865096871315e-05,
119,2.7886918952701576e-05,
120,3.0529387612831716e-05,
121,3.338511141727574e-05,
122,3.6467395612004075e-05,
123,3.978999200790432e-05,
124,4.336707634845101e-05,
125,4.721322114850373e-05,
126,5.134336378178101e-05,
127,5.577276961304444e-05,
128,6.051698999314626e-05,
129,6.559181496080701e-05,
130,7.101322052443586e-05,
131,7.679731043045129e-05,
132,8.296025236138823e-05,
133,8.951820854753564e-05,
134,9.648726081979306e-05,
135,0.0001038833301786,
136,0.0001117220910049,
137,0.0001200188800898,
138,0.0001287886007203,
139,0.0001380456221095,
140,0.0001478036745256,
141,0.0001580757405304,
142,0.000168873942801,
143,0.0001802094290691,
144,0.0001920922547745,
145,0.0002045312640863,
146,0.0002175339700057,
147,0.0002311064343163,
148,0.0002452531482025,
149,0.0002599769144009,
150,0.0002752787317929,
151,0.0002911576833853,
152,0.000307610828652,
153,0.0003246331012377,
154,0.0003422172130346,
155,0.0003603535656564,
156,0.0003790301703251,
157,0.0003982325771816,
158,0.0004179438150029,
159,0.0004381443422849,
160,0.0004588120106017,
161,0.0004799220411039,
162,0.0005014470149563,
163,0.0005233568784389,
164,0.0005456189633589,
165,0.0005681980233208,
166,0.0005910562863086,
167,0.0006141535239174,
168,0.0006374471374576,
169,0.0006608922610294,
170,0.000684441881534,
171,0.0007080469754535,
172,0.0007316566620926,
173,0.0007552183728326,
174,0.0007786780358078,
175,0.0008019802752713,
176,0.000825068624778,
177,0.0008478857531759,
178,0.0008703737022646,
179,0.0008924741348561,
180,0.0009141285918539,
181,0.0009352787568587,
182,0.0009558667267123,
183,0.0009758352863033,
184,0.0009951281858878,
185,0.001013690419117,
186,0.0010314684999217,
187,0.0010484107363732,
188,0.0010644674996312,
189,0.0010795914860899,
190,0.001093737970859,
191,0.0011068650507525,
192,0.0011189338750149,
193,0.0011299088620856,
194,0.0011397579007913,
195,0.0011484525344604,
196,0.0011559681265682,
197,0.0011622840066585,
198,0.001167383595425,
199,0.0011712545079961,
200,0.0011738886346263,
201,0.0011752821981727,
202,0.0011754357879106,
203,0.0011743543694261,
204,0.0011720472705085,
205,0.0011685281431499,
206,0.001163814901946,
207,0.0011579296393704,
208,0.0011508985185759,
209,0.0011427516445415,
210,0.0011335229145502,
211,0.0011232498491328,
212,0.0011119734047524,
213,0.0010997377696381,
214,0.0010865901442832,
215,0.0010725805082316,
216,0.0010577613748543,
217,0.0010421875358897,
218,0.001025915797571,
219,0.0010090047102014,
220,0.0009915142930528,
221,0.0009735057564663,
222,0.0009550412230166,
223,0.0009361834495709,
224,0.0009169955520265,
225,0.000897540734446,
226,0.0008778820242385,
227,0.0008580820149436,
228,0.0008382026180742,
229,0.0008183048253683,
230,0.0007984484826776,
231,0.0007786920765956,
232,0.0007590925347962,
233,0.0007397050409174,
234,0.0007205828646831,
235,0.0007017772078188,
236,0.000683337066171,
237,0.0006653091083058,
238,0.0006477375707186,
239,0.0006306641696618,
240,0.00061412802946,
241,0.0005981656270693,
242,0.0005828107525162,
243,0.000568094484747,
244,0.0005540451823225,
245,0.0005406884882997,
246,0.0005280473485679,
247,0.0005161420428341,
248,0.0005049902273962,
249,0.0004946069887934,
250,0.0004850049073864,
251,0.0004761941298912,
252,0.0004681824498742,
253,0.000460975395208,
254,0.0004545763214896,
255,0.0004489865104315,
256,0.0004442052722565,
257,0.000440230051153,
258,0.0004370565328783,
259,0.0004346787536402,
260,0.0004330892094301,
261,0.0004322789650284,
262,0.0004322377619602,
263,0.0004329541247328,
264,0.0004344154647458,
265,0.0004366081813271,
266,0.0004395177594071,
267,0.0004431288634066,
268,0.000447425426977,
269,0.0004523907382886,
270,0.0004580075206266,
271,0.0004642580081074,
272,0.0004711240163874,
273,0.0004785870082849,
274,0.0004866281542887,
275,0.0004952283879709,
276,0.0005043684563643,
277,0.0005140289654061,
278,0.0005241904205815,
279,0.0005348332629347,
280,0.0005459379006424,
281,0.0005574847363671,
282,0.0005694541906292,
283,0.0005818267214524,
284,0.0005945828405507,
285,0.0006077031263332,
286,0.0006211682340109,
287,0.0006349589030928,
288,0.0006490559625567,
289,0.0006634403339823,
290,0.0006780930329253,
291,0.0006929951688075,
292,0.0007081279435885,
293,0.000723472649474,
294,0.0007390106659053,
295,0.0007547234560596,
296,0.0007705925630801,
297,0.0007865996062369,
298,0.0008027262772071,
299,0.0008189543366449,
300,0.0008352656111982,
301,0.0008516419911114,
302,0.0008680654285369,
303,0.0008845179366654,
304,0.0009009815897662,
305,0.0009174385242139,
306,0.0009338709405666,
307,0.0009502611067418,
308,0.000966591362326,
309,0.0009828441240402,
310,0.0009990018923715,
311,0.0010150472593676,
312,0.0010309629175853,
313,0.0010467316701674,
314,0.0010623364420193,
315,0.0010777602920447,
316,0.0010929864263936,
317,0.0011079982126673,
318,0.0011227791950224,
319,0.0011373131101063,
320,0.0011515839037538,
321,0.0011655757483721,
322,0.0011792730609339,
323,0.0011926605215,
324,0.0012057230921863,
325,0.0012184460364929,
326,0.0012308149389066,
327,0.0012428157246934,
328,0.0012544346797906,
329,0.0012656584707153,
330,0.0012764741644007,
331,0.0012868692478768,
332,0.0012968316477108,
333,0.0013063497491255,
334,0.0013154124147157,
335,0.0013240090026849,
336,0.0013321293845265,
337,0.0013397639620771,
338,0.0013469036838726,
339,0.0013535400607405,
340,0.0013596651805643,
341,0.0013652717221621,
342,0.0013703529682224,
343,0.0013749028172443,
344,0.0013789157944353,
345,0.0013823870615212,
346,0.0013853124254286,
347,0.0013876883458027,
348,0.0013895119413306,
349,0.0013907809948402,
350,0.0013914939571531,
351,0.0013916499496714,
352,0.0013912487656841,
353,0.0013902908703823,
354,0.0013887773995782,
355,0.0013867101571233,
356,0.0013840916110317,
357,0.0013809248883112,
358,0.0013772137685157,
359,0.001372962676031,
360,0.0013681766711137,
361,0.001362861439705,
362,0.0013570232820446,
363,0.0013506691001149,
364,0.0013438063839474,
365,0.0013364431968279,
366,0.0013285881594393,
367,0.0013202504329841,
368,0.0013114397013315,
369,0.0013021661522369,
370,0.0012924404576828,
371,0.0012822737533943,
372,0.0012716776175824,
373,0.0012606640489727,
374,0.0012492454441746,
375,0.001237434574453,
376,0.0012252445619605,
377,0.0012126888554933,
378,0.0011997812058314,
379,0.0011865356407269,
380,0.0011729664396037,
381,0.0011590881080306,
382,0.0011449153520326,
383,0.0011304630523032,
384,0.001115746238379,
385,0.0011007800628404,
386,0.0010855797755985,
387,0.001070160698329,
388,0.0010545381991109,
389,0.0010387276673292,
390,0.0010227444888963,
391,0.0010066040218477,
392,0.0009903215723632,
393,0.0009739123712651,
394,0.0009573915510421,
395,0.0009407741234439,
396,0.0009240749576914,
397,0.0009073087593444,
398,0.0008904900498636,
399,0.0008736331469056,
400,0.0008567521453836,
401,0.0008398608993237,
402,0.0008229730045466,
403,0.0008061017821986,
404,0.0007892602631551,
405,0.0007724611733158,
406,0.0007557169198085,
407,0.0007390395781147,
408,0.0007224408801288,
409,0.0007059322031591,
410,0.0006895245598742,
411,0.0006732285892005,
412,0.0006570545481672,
413,0.0006410123046995,
414,0.0006251113313516,
415,0.0006093606999746,
416,0.000593769077307,
417,0.0005783447214761,
418,0.0005630954793965,
419,0.0005480287850475,
420,0.0005331516586115,
421,0.0005184707064525,
422,0.0005039921219126,
423,0.0004897216869019,
424,0.0004756647742565,
425,0.0004618263508372,
426,0.000448210981342,
427,0.0004348228327999,
428,0.0004216656797196,
429,0.0004087429098579,
430,0.0003960575305775,
431,0.0003836121757617,
432,0.0003714091132514,
433,0.0003594502527706,
434,0.0003477371543082,
435,0.000336271036919,
436,0.0003250527879122,
437,0.0003140829723908,
438,0.0003033618431099,
439,0.0002928893506182,
440,0.0002826651536505,
441,0.0002726886297375,
442,0.0002629588859998,
443,0.000253474770096,
444,0.0002442348812913,
445,0.0002352375816182,
446,0.0002264810070984,
447,0.0002179630789981,
448,0.0002096815150877,
449,0.0002016338408805,
450,0.0001938174008246,
451,0.0001862293694221,
452,0.0001788667622538,
453,0.0001717264468864,
454,0.0001648051536404,
455,0.0001580994862008,
456,0.00015160593205,
457,0.000145320872706,
458,0.0001392405937511,
459,0.0001333612946337,
460,0.0001276790982321,
461,0.0001221900601659,
462,0.0001168901778447,
463,0.0001117753992436,
464,0.000106841631398,
465,0.0001020847486071,
466,9.750060034304456e-05,
467,9.308501885733012e-05,
468,8.88338264822277e-05,
469,8.474284262231835e-05,
470,8.080789043474331e-05,
471,7.702480319644307e-05,
472,7.338943035800516e-05,
473,6.989764328456923e-05,
474,6.654534068508181e-05,
475,6.332845373199509e-05,
476,6.0242950874279235e-05,
477,5.728484234731798e-05,
478,5.445018438394299e-05,
479,5.173508313149202e-05,
480,4.913569828035128e-05,
481,4.664824640999709e-05,
482,4.426900405904621e-05,
483,4.199431052627926e-05,
484,3.98205704100136e-05,
485,3.774425589358638e-05,
486,3.576190878502811e-05,
487,3.387014231931464e-05,
488,3.206564273183156e-05,
489,3.0345170611915703e-05,
490,2.870556204551801e-05,
491,2.7143729556190868e-05,
492,2.5656662853719033e-05,
493,2.424142939981073e-05,
494,2.2895174800324267e-05,
495,2.16151230335456e-05,
496,2.0398576524046683e-05,
497,1.9242916071637316e-05,
498,1.8145600644896765e-05,
499,1.710416704872448e-05,
500,1.6116229475270257e-05,
501,1.5179478947532448e-05,
502,1.4291682664804784e-05,
503,1.345068325905284e-05,
504,1.2654397971170812e-05,
505,1.1900817755950344e-05,
506,1.1188006324448811e-05,
507,1.0514099132307868e-05,
508,9.877302322427455e-06,
509,9.275891630248702e-06,
510,8.70821125975491e-06,
511,8.172672738144696e-06,
512,7.667753756985374e-06,
513,7.191997007513035e-06,
514,6.744009017590779e-06,
515,6.3224589977131995e-06,
516,5.926077703296057e-06,
517,5.55365632037367e-06,
518,5.204045381693842e-06,
519,4.876153720093253e-06,
520,4.568947465918631e-06,
521,4.281449095162532e-06,
522,4.0127365348823545e-06,
523,3.761942332384728e-06,
524,3.528252894577101e-06,
525,3.3109078038035378e-06,
526,3.109199216423225e-06,
527,2.9224713503127513e-06,
528,2.7501200674166138e-06,
529,2.591592557412898e-06,
530,2.4463871284958835e-06,
531,2.314053111228865e-06,
532,2.194190881354842e-06,
533,2.086452007394718e-06,
534,1.9905395287956643e-06,
535,1.906208370317796e-06,
536,1.8332658982687272e-06,
537,1.771572624096732e-06,
538,1.7210430607504998e-06,
539,1.6816467370910145e-06,
540,1.6534093754914622e-06,
541,1.6364142376068557e-06,
542,1.6308036430960354e-06,
543,1.6367806658669577e-06,
544,1.654611012166133e-06,
545,1.684625084548962e-06,
546,1.7272202354452994e-06,
547,1.7828632136773955e-06,
548,1.852092806872184e-06,
549,1.9355226822647794e-06,
550,2.033844427871897e-06,
551,2.1478307954651215e-06,
552,2.2783391461456234e-06,
553,2.4263150986455665e-06,
554,2.592796379738545e-06,
555,2.7789168753284346e-06,
556,2.9859108799062463e-06,
557,3.215117541114356e-06,
558,3.467985495132009e-06,
559,3.746077687490357e-06,
560,4.051076372758838e-06,
561,4.3847882852768905e-06,
562,4.749149971782948e-06,
563,5.146233275376619e-06,
564,5.578250958765761e-06,
565,6.047562453184319e-06,
566,6.5566797177329845e-06,
567,7.108273192184831e-06,
568,7.705177824525609e-06,
569,8.350399152652987e-06,
570,9.047119417770857e-06,
571,9.79870368505502e-06,
572,1.0608705945177116e-05,
573,1.148087516823608e-05,
574,1.241916127958114e-05,
575,1.3427721024929002e-05,
576,1.4510923690077984e-05,
577,1.5673356638434893e-05,
578,1.6919830627485235e-05,
579,1.825538486329103e-05,
580,1.9685291750083516e-05,
581,2.1215061290074137e-05,
582,2.2850445086713023e-05,
583,2.4597439902846848e-05,
584,2.646229072353413e-05,
585,2.8451493271718457e-05,
586,3.057179592355386e-05,
587,3.283020096891186e-05,
588,3.523396516155236e-05,
589,3.779059950255686e-05,
590,4.050786820000442e-05,
591,4.339378674746144e-05,
592,4.645661906374489e-05,
593,4.970487363655735e-05,
594,5.314729861308016e-05,
595,5.67928757813708e-05,
596,6.065081338757254e-05,
597,6.473053773541395e-05,
598,6.904168351635112e-05,
599,7.359408282098503e-05,
600,7.83977527850241e-05,
601,8.346288182618973e-05,
602,8.879981443193554e-05,
603,9.441903446184855e-05,
604,0.0001003311469329,
605,0.000106546858261,
606,0.0001130769549363,
607,0.0001199322806177,
608,0.0001271237116356,
609,0.0001346621309005,
610,0.0001425584002212,
611,0.0001508233310436,
612,0.0001594676536301,
613,0.0001685019847054,
614,0.0001779367936067,
615,0.0001877823669801,
616,0.0001980487720804,
617,0.000208745818734,
618,0.0002198830200397,
619,0.000231469551889,
620,0.0002435142113977,
621,0.0002560253743517,
622,0.0002690109517766,
623,0.0002824783457558,
624,0.0002964344046255,
625,0.0003108853776887,
626,0.0003258368695979,
627,0.0003412937945654,
628,0.0003572603305689,
629,0.0003737398737273,
630,0.0003907349930307,
631,0.0004082473856151,
632,0.0004262778327773,
633,0.0004448261569337,
634,0.0004638911797295,
635,0.0004834706815101,
636,0.0005035613623692,
637,0.00052415880499,
638,0.0005452574394983,
639,0.0005668505105443,
640,0.0005889300468324,
641,0.0006114868333111,
642,0.0006345103862377,
643,0.0006579889313233,
644,0.0006819093851597,
645,0.0007062573401238,
646,0.0007310170529438,
647,0.0007561714371069,
648,0.0007817020592712,
649,0.0008075891398388,
650,0.0008338115578289,
651,0.0008603468601785,
652,0.0008871712755822,
653,0.0009142597329639,
654,0.0009415858846597,
655,0.0009691221343682,
656,0.0009968396699092,
657,0.0010247085008087,
658,0.0010526975007078,
659,0.0010807744545732,
660,0.0011089061106632,
661,0.0011370582371818,
662,0.0011651956835291,
663,0.0011932824460375,
664,0.001221281738055,
665,0.0012491560642186,
666,0.0012768672987362,
667,0.001304376767474,
668,0.0013316453336245,
669,0.0013586334867099,
670,0.0013853014346548,
671,0.0014116091986431,
672,0.0014375167104575,
673,0.001462983911979,
674,0.0014879708565125,
675,0.0015124378115879,
676,0.0015363453628734,
677,0.0015596545188266,
678,0.0015823268157003,
679,0.001604324422511,
680,0.001625610245573,
681,0.0016461480321964,
682,0.0016659024731456,
683,0.0016848393034556,
684,0.0017029254012034,
685,0.0017201288838387,
686,0.0017364192016809,
687,0.0017517672282011,
688,0.0017661453467149,
689,0.0017795275331254,
690,0.0017918894343708,
691,0.0018032084422436,
692,0.0018134637622706,
693,0.0018226364773588,
694,0.0018307096059345,
695,0.0018376681543265,
696,0.001843499163166,
697,0.0018481917476034,
698,0.0018517371311663,
699,0.0018541286731122,
700,0.0018553618891559,
701,0.0018554344654812,
702,0.0018543462659764,
703,0.0018520993326601,
704,0.001848697879298,
705,0.0018441482782361,
706,0.0018384590405097,
707,0.0018316407893145,
708,0.0018237062269551,
709,0.0018146700954156,
710,0.0018045491307235,
711,0.0017933620113041,
712,0.0017811293005486,
713,0.0017678733838443,
714,0.0017536184003347,
715,0.0017383901697025,
716,0.0017222161142846,
717,0.0017051251768499,
718,0.001687147734382,
719,0.0016683155082287,
720,0.0016486614709877,
721,0.0016282197505121,
722,0.0016070255314245,
723,0.0015851149545381,
724,0.0015625250145836,
725,0.001539293456648,
726,0.0015154586717261,
727,0.0014910595917888,
728,0.001466135584764,
729,0.0014407263498244,
730,0.001414871813366,
731,0.001388612026053,
732,0.0013619870612935,
733,0.0013350369154988,
734,0.0013078014104624,
735,0.001280320098182,
736,0.0012526321684302,
737,0.0012247763593599,
738,0.0011967908714135,
739,0.0011687132847838,
740,0.0011405804806542,
741,0.0011124285664238,
742,0.0010842928051012,
743,0.0010562075490291,
744,0.0010282061780775,
745,0.0010003210424233,
746,0.0009725834100074,
747,0.0009450234187415,
748,0.000917670033513,
749,0.0008905510080125,
750,0.0008636928513907,
751,0.0008371207997274,
752,0.0008108587922755,
753,0.0007849294524255,
754,0.0007593540733144,
755,0.0007341526079872,
756,0.0007093436640033,
757,0.0006849445023597,
758,0.0006609710405966,
759,0.0006374378599291,
760,0.0006143582162421,
761,0.0005917440547735,
762,0.0005696060282996,
763,0.0005479535186295,
764,0.0005267946612082,
765,0.0005061363726224,
766,0.0004859843807959,
767,0.000466343257663,
768,0.0004472164541003,
769,0.0004286063369006,
770,0.0004105142275705,
771,0.0003929404427348,
772,0.0003758843359332,
773,0.0003593443405971,
774,0.0003433180139995,
775,0.0003278020819749,
776,0.000312792484211,
777,0.0002982844199232,
778,0.0002842723937256,
779,0.0002707502615239,
780,0.0002577112762613,
781,0.0002451481333567,
782,0.0002330530156862,
783,0.000221417637964,
784,0.0002102332903925,
785,0.0001994908814574,
786,0.0001891809797569,
787,0.0001792938547593,
788,0.0001698195163994,
789,0.0001607477534276,
790,0.0001520681704393,
791,0.0001437702235203,
792,0.0001358432544545,
793,0.0001282765234468,
794,0.000121059240325,
795,0.000114180594194,
796,0.00010762978152,
797,0.0001013960326348,
798,9.54686366542271e-05,
799,8.983696481389522e-05,
800,8.449049223108869e-05,
801,7.941881810832711e-05,
802,7.461168439969379e-05,
803,7.005899296640085e-05,
804,6.575082125297769e-05,
805,6.167743651991421e-05,
806,5.7829308672533095e-05,
807,5.419712172951502e-05,
808,5.077178397753541e-05,
809,4.754443686124011e-05,
810,4.450646266007108e-05,
811,4.1649491005317405e-05,
812,3.896540429235281e-05,
813,3.644634204410807e-05,
814,3.408470428267797e-05,
815,3.187315396642851e-05,
816,2.980461855012643e-05,
817,2.787229072551148e-05,
818,2.606962839932608e-05,
819,2.4390353965178635e-05,
820,2.28284529247554e-05,
821,2.1378171912799657e-05,
822,2.003401617902331e-05,
823,1.879074657867952e-05,
824,1.7643376121924452e-05,
825,1.6587166130405455e-05,
826,1.561762204765788e-05,
827,1.4730488947995396e-05,
828,1.392174678656775e-05,
829,1.3187605431197791e-05,
830,1.2524499514518437e-05,
831,1.192908314277843e-05,
832,1.1398224495540508e-05,
833,1.0929000348336736e-05,
834,1.0518690548187524e-05,
835,1.0164772469758175e-05,
836,9.86491547782088e-06,
837,9.616975419608316e-06,
838,9.418989168622766e-06,
839,9.26916923948054e-06,
840,9.16589849144898e-06,
841,9.10772493647175e-06,
842,9.093356665678846e-06,
843,9.121656906661264e-06,
844,9.191639222121363e-06,
845,9.30246285894784e-06,
846,9.453428255251928e-06,
847,9.643972711477872e-06,
848,9.873666230361578e-06,
849,1.0142207529233196e-05,
850,1.04494202269788e-05,
851,1.079524920685204e-05,
852,1.1179757155299185e-05,
853,1.1603121275985874e-05,
854,1.2065630177326031e-05,
855,1.256768093099365e-05,
856,1.3109776298132094e-05,
857,1.369252211929557e-05,
858,1.4316624863521486e-05,
859,1.4982889331365523e-05,
860,1.5692216506220095e-05,
861,1.6445601547774526e-05,
862,1.7244131921070167e-05,
863,1.8088985654243137e-05,
864,1.898142971772994e-05,
865,1.992281851744181e-05,
866,2.091459249417997e-05,
867,2.195827682136136e-05,
868,2.3055480192978464e-05,
869,2.420789369355952e-05,
870,2.541728974182647e-05,
871,2.6685521099647136e-05,
872,2.801451993784188e-05,
873,2.94062969503793e-05,
874,3.0862940508489215e-05,
875,3.238661584622266e-05,
876,3.39795642690518e-05,
877,3.5644102377111176e-05,
878,3.738262129477802e-05,
879,3.919758589834946e-05,
880,4.109153403366198e-05,
881,4.306707571561789e-05,
882,4.512689230166735e-05,
883,4.72737356314435e-05,
884,4.951042712486546e-05,
885,5.183985683116154e-05,
886,5.426498242142866e-05,
887,5.678882811748669e-05,
888,5.94144835499584e-05,
889,6.21451025386822e-05,
890,6.498390178873085e-05,
891,6.793415949552225e-05,
892,7.099921385268472e-05,
893,7.41824614565387e-05,
894,7.748735560130865e-05,
895,8.091740445933131e-05,
896,8.447616914082705e-05,
897,8.81672616279873e-05,
898,9.199434257838948e-05,
899,9.596111899302352e-05,
900,0.0001000713417444,
901,0.0001043288029608,
902,0.0001087373332623,
903,0.0001133007988452,
904,0.0001180230984116,
905,0.0001229081599417,
906,0.0001279599373038,
907,0.0001331824067035,
908,0.000138579562966,
909,0.0001441554156533,
910,0.0001499139850122,
911,0.0001558592977543,
912,0.0001619953826663,
913,0.0001683262660509,
914,0.000174855966998,
915,0.0001815884924881,
916,0.0001885278323274,
917,0.0001956779539173,
918,0.0002030427968602,
919,0.0002106262674029,
920,0.0002184322327223,
921,0.000226464515055,
922,0.0002347268856756,
923,0.000243223058728,
924,0.0002519566849139,
925,0.0002609313450441,
926,0.0002701505434584,
927,0.0002796177013205,
928,0.0002893361497939,
929,0.0002993091231068,
930,0.0003095397515136,
931,0.0003200310541605,
932,0.0003307859318648,
933,0.0003418071598169,
934,0.0003530973802137,
935,0.000364659094835,
936,0.0003764946575723,
937,0.0003886062669219,
938,0.0004009959584526,
939,0.0004136655972616,
940,0.0004266168704293,
941,0.000439851279487,
942,0.0004533701329091,
943,0.0004671745386455,
944,0.0004812653967056,
945,0.0004956433918097,
946,0.000510308986122,
947,0.0005252624120788,
948,0.0005405036653288,
949,0.0005560324977991,
950,0.0005718484109028,
951,0.0005879506489044,
952,0.0006043381924577,
953,0.000621009752333,
954,0.000637963763349,
955,0.000655198378525,
956,0.0006727114634706,
957,0.0006905005910274,
958,0.0007085630361798,
959,0.0007268957712495,
960,0.0007454954613904,
961,0.0007643584603991,
962,0.0007834808068554,
963,0.0008028582206088,
964,0.0008224860996255,
965,0.0008423595172097,
966,0.0008624732196136,
967,0.0008828216240495,
968,0.0009033988171171,
969,0.000924198553659,
970,0.0009452142560549,
971,0.0009664390139681,
972,0.0009878655845537,
973,0.0010094863931387,
974,0.001031293534384,
975,0.0010532787739368,
976,0.0010754335505812,
977,0.0010977489788944,
978,0.0011202158524141,
979,0.001142824647324,
980,0.0011655655266599,
981,0.001188428345042,
982,0.0012114026539345,
983,0.001234477707435,
984,0.001257642468594,
985,0.0012808856162638,
986,0.0013041955524768,
987,0.001327560410348,
988,0.0013509680625015,
989,0.0013744061300129,
990,0.0013978619918647,
991,0.0014213227949059,
992,0.0014447754643088,
993,0.0014682067145133,
994,0.0014916030606489,
995,0.0015149508304231,
996,0.0015382361764632,
997,0.0015614450890982,
998,0.0015845634095674,
999,0.0016075768436378,
1000,0.0016304709756152,
1001,0.0016532312827313,
1002,0.0016758431498871,
1003,0.0016982918847339,
1004,0.0017205627330704,
1005,0.0017426408945353,
1006,0.0017645115385723,
1007,0.0017861598206442,
1008,0.0018075708986733,
1009,0.0018287299496813,
1010,0.0018496221866053,
1011,0.0018702328752619,
1012,0.001890547351435,
1013,0.0019105510380571,
1014,0.001930229462459,
1015,0.0019495682736586,
1016,0.0019685532596596,
1017,0.0019871703647324,
1018,0.0020054057066475,
1019,0.0020232455938323,
1020,0.002040676542421,
1021,0.0020576852931693,
1022,0.0020742588282038,
1023,0.0020903843875762,
1024,0.0021060494855941,
1025,0.0021212419268976,
1026,0.002135949822255,
1027,0.0021501616040468,
1028,0.0021638660414117,
1029,0.002177052255026,
1030,0.0021897097314893,
1031,0.0022018283372903,
1032,0.0022133983323268,
1033,0.0022244103829542,
1034,0.0022348555745389,
1035,0.0022447254234929,
1036,0.002254011888766,
1037,0.0022627073827753,
1038,0.0022708047817509,
1039,0.002278297435477,
1040,0.0022851791764122,
1041,0.0022914443281692,
1042,0.0022970877133394,
1043,0.0023021046606469,
1044,0.0023064910114181,
1045,0.0023102431253549,
1046,0.0023133578855997,
1047,0.0023158327030843,
1048,0.0023176655201522,
1049,0.002318854813449,
1050,0.0023193995960753,
1051,0.0023192994189973,
1052,0.0023185543717138,
1053,0.0023171650821772,
1054,0.002315132715971,
1055,0.0023124589747425,
1056,0.0023091460938974,
1057,0.0023051968395593,
1058,0.0023006145048002,
1059,0.0022954029051503,
1060,0.0022895663733968,
1061,0.0022831097536805,
1062,0.0022760383949036,
1063,0.0022683581434611,
1064,0.0022600753353105,
1065,0.0022511967873958,
1066,0.0022417297884426,
1067,0.002231682089142,
1068,0.0022210618917439,
1069,0.002209877839079,
1070,0.0021981390030315,
1071,0.0021858548724852,
1072,0.0021730353407659,
1073,0.002159690692605,
1074,0.0021458315906497,
1075,0.0021314690615446,
1076,0.0021166144816131,
1077,0.0021012795621646,
1078,0.0020854763344562,
1079,0.0020692171343371,
1080,0.0020525145866048,
1081,0.0020353815891024,
1082,0.002017831296587,
1083,0.0019998771043978,
1084,0.001981532631957,
1085,0.0019628117061298,
1086,0.0019437283444775,
1087,0.0019242967384319,
1088,0.0019045312364222,
1089,0.0018844463269836,
1090,0.0018640566218787,
1091,0.0018433768392614,
1092,0.0018224217869106,
1093,0.0018012063455658,
1094,0.0017797454523908,
1095,0.0017580540845938,
1096,0.0017361472432329,
1097,0.0017140399372319,
1098,0.0016917471676335,
1099,0.0016692839121159,
1100,0.0016466651097959,
1101,0.0016239056463438,
1102,0.001601020339433,
1103,0.0015780239245453,
1104,0.001554931041154,
1105,0.0015317562193049,
1106,0.0015085138666143,
1107,0.0014852182557015,
1108,0.0014618835120739,
1109,0.00143852360248,
1110,0.0014151523237449,
1111,0.0013917832921025,
1112,0.0013684299330369,
1113,0.0013451054716433,
1114,0.0013218229235207,
1115,0.0012985950862018,
1116,0.0012754345311321,
1117,0.001252353596201,
1118,0.0012293643788315,
1119,0.0012064787296337,
1120,0.0011837082466228,
1121,0.0011610642700037,
1122,0.0011385578775244,
1123,0.0011161998803945,
1124,0.0010940008197683,
1125,0.0010719709637893,
1126,0.0010501203051915,
1127,0.0010284585594511,
1128,0.0010069951634827,
1129,0.0009857392748725,
1130,0.0009646997716387,
1131,0.0009438852525085,
1132,0.0009233040377033,
1133,0.0009029641702165,
1134,0.0008828734175737,
1135,0.0008630392740594,
1136,0.0008434689633963,
1137,0.0008241694418609,
1138,0.0008051474018185,
1139,0.0007864092756607,
1140,0.0007679612401259,
1141,0.0007498092209851,
1142,0.0007319588980718,
1143,0.0007144157106366,
1144,0.0006971848630048,
1145,0.0006802713305149,
1146,0.0006636798657167,
1147,0.0006474150048051,
1148,0.0006314810742672,
1149,0.0006158821977183,
1150,0.0006006223029031,
1151,0.000585705128838,
1152,0.0005711342330684,
1153,0.0005569129990183,
1154,0.0005430446434046,
1155,0.0005295322236928,
1156,0.0005163786455679,
1157,0.0005035866703946,
1158,0.0004911589226427,
1159,0.0004790978972507,
1160,0.0004674059669041,
1161,0.0004560853892024,
1162,0.000445138313689,
1163,0.0004345667887224,
1164,0.0004243727681605,
1165,0.0004145581178375,
1166,0.0004051246218084,
1167,0.000396073988338,
1168,0.0003874078556129,
1169,0.0003791277971533,
1170,0.0003712353269061,
1171,0.0003637319039951,
1172,0.000356618937112,
1173,0.0003498977885277,
1174,0.0003435697777066,
1175,0.0003376361845057,
1176,0.0003320982519445,
1177,0.0003269571885291,
1178,0.0003222141701167,
1179,0.0003178703413092,
1180,0.0003139268163622,
1181,0.0003103846796013,
1182,0.0003072449853354,
1183,0.0003045087572592,
1184,0.0003021769873403,
1185,0.0003002506341837,
1186,0.0002987306208731,
1187,0.0002976178322848,
1188,0.0002969131118756,
1189,0.0002966172579453,
1190,0.0002967310193777,
1191,0.0002972550908627,
1192,0.000298190107609,
1193,0.000299536639553,
1194,0.0003012951850735,
1195,0.0003034661642268,
1196,0.0003060499115109,
1197,0.0003090466681779,
1198,0.0003124565741091,
1199,0.0003162796592713,
1200,0.0003205158347763,
1201,0.0003251648835631,
1202,0.0003302264507283,
1203,0.0003357000335295,
1204,0.0003415849710882,
1205,0.0003478804338215,
1206,0.0003545854126321,
1207,0.000361698707889,
1208,0.0003692189182307,
1209,0.0003771444292274,
1210,0.0003854734019356,
1211,0.0003942037613843,
1212,0.0004033331850301,
1213,0.0004128590912198,
1214,0.0004227786277028,
1215,0.0004330886602327,
1216,0.0004437857613001,
1217,0.0004548661990414,
1218,0.0004663259263642,
1219,0.000478160570334,
1220,0.0004903654218679,
1221,0.0005029354257758,
1222,0.0005158651711974,
1223,0.0005291488824758,
1224,0.0005427804105147,
1225,0.0005567532246593,
1226,0.0005710604051477,
1227,0.0005856946361721,
1228,0.000600648199593,
1229,0.0006159129693472,
1230,0.0006314804065876,
1231,0.0006473415555944,
1232,0.0006634870404943,
1233,0.0006799070628218,
1234,0.0006965913999582,
1235,0.0007135294044768,
1236,0.0007307100044274,
1237,0.0007481217045846,
1238,0.0007657525886867,
1239,0.0007835903226869,
1240,0.000801622159038,
1241,0.0008198349420268,
1242,0.0008382151141733,
1243,0.0008567487237074,
1244,0.0008754214331299,
1245,0.0008942185288654,
1246,0.0009131249320083,
1247,0.0009321252101614,
1248,0.0009512035903634,
1249,0.0009703439730981,
1250,0.0009895299473727,
1251,0.0010087448068538,
1252,0.001027971567041,
1253,0.0010471929834579,
1254,0.0010663915708362,
1255,0.0010855496232646,
1256,0.0011046492352703,
1257,0.0011236723238006,
1258,0.0011426006510636,
1259,0.0011614158481897,
1260,0.001180099439667,
1261,0.0011986328685053,
1262,0.0012169975220766,
1263,0.0012351747585807,
1264,0.001253145934078,
1265,0.0012708924300334,
1266,0.0012883956813088,
1267,0.001305637204542,
1268,0.0013225986268473,
1269,0.0013392617147698,
1270,0.0013556084034269,
1271,0.0013716208257644,
1272,0.0013872813418585,
1273,0.0014025725681902,
1274,0.0014174774068187,
1275,0.0014319790743819,
1276,0.0014460611308474,
1277,0.0014597075079434,
1278,0.0014729025371921,
1279,0.0014856309774746,
1280,0.0014978780420533,
1281,0.0015096294249797,
1282,0.0015208713268179,
1283,0.001531590479612,
1284,0.0015417741710316,
1285,0.0015514102676287,
1286,0.0015604872371403,
1287,0.0015689941697775,
1288,0.0015769207984395,
1289,0.0015842575177969,
1290,0.0015909954021905,
1291,0.0015971262222947,
1292,0.0016026424604976,
1293,0.0016075373249546,
1294,0.0016118047622751,
1295,0.0016154394688045,
1296,0.0016184369004697,
1297,0.0016207932811588,
1298,0.0016225056096107,
1299,0.0016235716647926,
1300,0.001623990009751,
1301,0.0016237599939227,
1302,0.0016228817538979,
1303,0.0016213562126334,
1304,0.0016191850771158,
1305,0.0016163708344797,
1306,0.0016129167465924,
1307,0.0016088268431169,
1308,0.0016041059130735,
1309,0.0015987594949213,
1310,0.001592793865187,
1311,0.0015862160256705,
1312,0.0015790336892638,
1313,0.0015712552644201,
1314,0.001562889838315,
1315,0.001553947158747,
1316,0.001544437614824,
1317,0.0015343722164898,
1318,0.001523762572944,
1319,0.0015126208700147,
1320,0.0015009598465432,
1321,0.0014887927698435,
1322,0.0014761334103031,
1323,0.0014629960151893,
1324,0.0014493952817328,
1325,0.0014353463295556,
1326,0.0014208646725168,
1327,0.0014059661900475,
1328,0.0013906670980476,
1329,0.0013749839194196,
1330,0.001358933454311,
1331,0.0013425327501413,
1332,0.0013257990714861,
1333,0.0013087498698917,
1334,0.0012914027536934,
1335,0.0012737754579081,
1336,0.0012558858142733,
1337,0.0012377517215003,
1338,0.0012193911158104,
1339,0.0012008219418199,
1340,0.001182062123838,
1341,0.0011631295376394,
1342,0.0011440419827724,
1343,0.0011248171554585,
1344,0.0011054726221399,
1345,0.0010860257937265,
1346,0.0010664939005912,
1347,0.0010468939683608,
1348,0.0010272427945466,
1349,0.0010075569260531,
1350,0.0009878526376039,
1351,0.0009681459111187,
1352,0.0009484524160702,
1353,0.0009287874908511,
1354,0.0009091661251735,
1355,0.0008896029435212,
1356,0.0008701121896743,
1357,0.0008507077123175,
1358,0.0008314029517453,
1359,0.0008122109276697,
1360,0.0007931442281362,
1361,0.0007742149995481,
1362,0.0007554349377977,
1363,0.0007368152804994,
1364,0.0007183668003168,
1365,0.0007000997993721,
1366,0.0006820241047268,
1367,0.0006641490649141,
1368,0.0006464835475076,
1369,0.0006290359377036,
1370,0.0006118141378937,
1371,0.0005948255682034,
1372,0.000578077167968,
1373,0.0005615753981183,
1374,0.0005453262444429,
1375,0.0005293352216974,
1376,0.0005136073785234,
1377,0.0004981473031458,
1378,0.0004829591298086,
1379,0.0004680465459146,
1380,0.0004534127998296,
1381,0.0004390607093127,
1382,0.0004249926705336,
1383,0.0004112106676364,
1384,0.0003977162828117,
1385,0.0003845107068349,
1386,0.0003715947500318,
1387,0.0003589688536319,
1388,0.0003466331014683,
1389,0.0003345872319863,
1390,0.0003228306505215,
1391,0.0003113624418086,
1392,0.0003001813826837,
1393,0.0002892859549439,
1394,0.0002786743583271,
1395,0.0002683445235782,
1396,0.0002582941255669,
1397,0.0002485205964249,
1398,0.0002390211386704,
1399,0.0002297927382893,
1400,0.000220832177745,
1401,0.000212136048887,
1402,0.0002037007657337,
1403,0.0001955225771031,
1404,0.0001875975790676,
1405,0.0001799217272114,
1406,0.0001724908486687,
1407,0.0001653006539239,
1408,0.0001583467483549,
1409,0.0001516246435045,
1410,0.0001451297680628,
1411,0.0001388574785486,
1412,0.0001328030696763,
1413,0.0001269617843982,
1414,0.0001213288236122,
1415,0.0001158993555265,
1416,0.0001106685246752,
1417,0.0001056314605782,
1418,0.0001007832860413,
1419,9.611912509389476e-05,
1420,9.163411056038578e-05,
1421,8.732339126698438e-05,
1422,8.318213888125471e-05,
1423,7.920555438710164e-05,
1424,7.538887419661479e-05,
1425,7.172737590172353e-05,
1426,6.821638366941228e-05,
1427,6.485127328500791e-05,
1428,6.162747684883039e-05,
1429,5.854048713214712e-05,
1430,5.558586159904529e-05,
1431,5.275922610140042e-05,
1432,5.005627825466899e-05,
1433,4.7472790502699306e-05,
1434,4.5004612880206e-05,
1435,4.264767548192771e-05,
1436,4.039799064782366e-05,
1437,3.82516548739675e-05,
1438,3.620485045902161e-05,
1439,3.425384689639408e-05,
1440,3.239500202233024e-05,
1441,3.062476293031795e-05,
1442,2.8939666662251697e-05,
1443,2.7336340686859905e-05,
1444,2.5811503175896156e-05,
1445,2.4361963088580927e-05,
1446,2.298462007470961e-05,
1447,2.1676464206773207e-05,
1448,2.043457555131297e-05,
1449,1.9256123589597964e-05,
1450,1.8138366497552818e-05,
1451,1.7078650294673973e-05,
1452,1.607440787147521e-05,
1453,1.5123157904778665e-05,
1454,1.422250366993445e-05,
1455,1.337013175878928e-05,
1456,1.256381071197663e-05,
1457,1.1801389573809783e-05,
1458,1.108079637778469e-05,
1459,1.0400036570403077e-05,
1460,9.757191380726198e-06,
1461,9.150416142770127e-06,
1462,8.577938577541536e-06,
1463,8.03805704120886e-06,
1464,7.529138745584525e-06,
1465,7.049617956796874e-06,
1466,6.597994177705434e-06,
1467,6.1728303193211305e-06,
1468,5.772750866179527e-06,
1469,5.3964400403166e-06,
1470,5.042639968208282e-06,
1471,4.710148854735801e-06,
1472,4.39781916796235e-06,
1473,4.104555838229707e-06,
1474,3.829314474808066e-06,
1475,3.5710996030791217e-06,
1476,3.328962924973534e-06,
1477,3.1020016051392432e-06,
1478,2.8893565850849216e-06,
1479,2.6902109273085724e-06,
1480,2.5037881912113916e-06,
1481,2.329350842381993e-06,
1482,2.1661986966391724e-06,
1483,2.01366740003283e-06,
1484,1.8711269458175564e-06,
1485,1.7379802292503608e-06,
1486,1.613661640891427e-06,
1487,1.4976356989476376e-06,
1488,1.389395721040407e-06,
1489,1.2884625356599227e-06,
1490,1.1943832334317371e-06,
1491,1.1067299582070798e-06,
1492,1.0250987378866566e-06,
1493,9.49108354776386e-07,
1494,8.783992551890796e-07,
1495,8.126324979221208e-07,
1496,7.51488741153981e-07,
1497,6.94667267246283e-07,
1498,6.418850448638999e-07,
1499,5.92875827774084e-07,
1500,5.473892896313511e-07,
1501,5.051901940161042e-07,
1502,4.660575989488296e-07,
1503,4.297840950750197e-07,
1504,3.961750766811925e-07,
1505,3.650480446824209e-07,
1506,3.362319407025448e-07,
1507,3.095665113526878e-07,
1508,2.849017017995611e-07,
1509,2.6209707771224744e-07,
1510,2.410212746692029e-07,
1511,2.215514741094193e-07,
1512,2.03572904905664e-07,
1513,1.869783696549079e-07,
1514,1.7166779477583937e-07,
1515,1.5754780352068757e-07,
1516,1.445313110162064e-07,
1517,1.3253714046279148e-07,
1518,1.2148965963518725e-07,
1519,1.1131843684430947e-07,
1520,1.0195791553711828e-07,
1521,9.33471067297876e-08,
1522,8.542929848887233e-08,
1523,7.815178169524473e-08,
1524,7.14655913464279e-08,
1525,6.53252626741962e-08,
1526,5.96886013761218e-08,
1527,5.4516467281717735e-08,
1528,4.977257079606751e-08,
1529,4.5423281486177783e-08,
1530,4.1437448197590174e-08,
1531,3.7786230111120915e-08,
1532,3.4442938171712874e-08,
1533,3.1382886343365293e-08,
1534,2.8583252165777738e-08,
1535,2.6022946109764138e-08,
1536,2.368248924950847e-08,
1537,2.1543898790396938e-08,
1538,1.9590581011349257e-08,
1539,1.7807231200343283e-08,
1540,1.617974018107671e-08,
1541,1.4695107047463377e-08,
1542,1.3341357740888122e-08,
1543,1.2107469122814693e-08,
1544,1.0983298212474442e-08,
1545,9.959516275919116e-09,
1546,9.027547468720836e-09,
1547,8.179511750018471e-09,
1548,7.408171800470767e-09,
1549,6.706883690956426e-09,
1550,6.069551062586252e-09,
1551,5.4905825917494395e-09,
1552,4.964852526533049e-09,
1553,4.487664092918963e-09,
1554,4.054715580700722e-09,
1555,3.6620689300792323e-09,
1556,3.306120650400306e-09,
1557,2.983574912510444e-09,
1558,2.691418665732492e-09,
1559,2.4268986395238e-09,
1560,2.1875000984812006e-09,
1561,1.9709272275251155e-09,
1562,1.775085031833411e-09,
1563,1.5980626434273564e-09,
1564,1.438117933249407e-09,
1565,1.2936633341289076e-09,
1566,1.163252786227525e-09,
1567,1.0455697224000918e-09,
1568,9.394160164188492e-10,
1569,8.437018221998842e-10,
1570,7.574362370586624e-10,
1571,6.797187266168101e-10,
1572,6.097312533021331e-10,
1573,5.467310544383721e-10,
1574,4.900440197267439e-10,
1575,4.3905862148772444e-10,
1576,3.9322035437268214e-10,
1577,3.5202664438266107e-10,
1578,3.1502218995609915e-10,
1579,2.817947006214231e-10,
1580,2.5197100126313687e-10,
1581,2.2521347243267316e-10,
1582,2.0121679935673335e-10,
1583,1.797050043663525e-10,
1584,1.6042873939757664e-10,
1585,1.431628170086271e-10,
1586,1.2770396002631623e-10,
1587,1.1386875148464447e-10,
1588,1.0149176795765263e-10,
1589,9.042388072421722e-11,
1590,8.053071044096889e-11,
1591,7.169122214710607e-11,
1592,6.379644848777568e-11,
1593,5.6748330026200846e-11,
1594,5.0458662424422465e-11,
1595,4.484814111318543e-11,
1596,3.9845494848056816e-11,
1597,3.538670026557154e-11,
1598,3.141427021434995e-11,
1599,2.787660924562776e-11,
1600,2.4727430209088596e-11,
1601,,5.518790256408137e-07
1602,,6.471822421544653e-07
1603,,7.57728382608759e-07
1604,,8.857369806671477e-07
1605,,1.03371366909835e-06
1606,,1.204481129239427e-06
1607,,1.4012124930764224e-06
1608,,1.6274672607679547e-06
1609,,1.8872297764389737e-06
1610,,2.1849502811796898e-06
1611,,2.5255885341299206e-06
1612,,2.91465996008632e-06
1613,,3.358284245003192e-06
1614,,3.863236258968427e-06
1615,,4.436999139559723e-06
1616,,5.0878193169509605e-06
1617,,5.824763205761687e-06
1618,,6.657775227564014e-06
1619,,7.5977367624567475e-06
1620,,8.656525558481976e-06
1621,,9.847075054437175e-06
1622,,1.1183432995370217e-05
1623,,1.2680818641535815e-05
1624,,1.4355677791686524e-05
1625,,1.622573476132353e-05
1626,,1.831004037713714e-05
1627,,2.0629014971620964e-05
1628,,2.32044852882622e-05
1629,,2.6059714139359863e-05
1630,,2.9219421597134458e-05
1631,,3.270979644622328e-05
1632,,3.655849658374969e-05
1633,,4.079463702395321e-05
1634,,4.544876414978063e-05
1635,,5.055281485591735e-05
1636,,5.61400592483868e-05
1637,,6.224502560691337e-05
1638,,6.890340637946471e-05
1639,,7.615194406532523e-05
1640,,8.402829595496465e-05
1641,,9.257087683295884e-05
1642,,0.0001018186789149
1643,,0.0001118110684818
1644,,0.000122587558892
1645,,0.0001341875599007
1646,,0.0001466501034826
1647,,0.0001600135466516
1648,,0.0001743152520872
1649,,0.0001895912477129
1650,,0.0002058758667214
1651,,0.0002232013699101
1652,,0.0002415975525537
1653,,0.0002610913384232
1654,,0.000281706363924
1655,,0.000303462555694
1656,,0.0003263757053483
1657,,0.0003504570453842
1658,,0.0003757128305616
1659,,0.0004021439293364
1660,,0.0004297454301543
1661,,0.0004585062675832
1662,,0.0004884088733952
1663,,0.0005194288577661
1664,,0.0005515347257707
1665,,0.000584687634279
1666,,0.0006188411942248
1667,,0.0006539413230027
1668,,0.0006899261514644
1669,,0.0007267259896177
1670,,0.0007642633546938
1671,,0.0008024530647363
1672,,0.0008412024002807
1673,,0.0008804113360485
1674,,0.0009199728438731
1675,,0.0009597732673179
1676,,0.0009996927676483
1677,,0.0010396058399861
1678,,0.0010793818976217
1679,,0.0011188859215932
1680,,0.0011579791717818
1681,,0.001196519954919
1682,,0.0012343644440875
1683,,0.0012713675435105
1684,,0.0013073837917014
1685,,0.001342268295385
1686,,0.001375877686015
1687,,0.0014080710902217
1688,,0.0014387111051251
1689,,0.00146766476916
1690,,0.0014948045188854
1691,,0.0015200091221908
1692,,0.0015431645783835
1693,,0.0015641649758263
1694,,0.0015829132981134
1695,,0.0015993221702063
1696,,0.0016133145365055
1697,,0.0016248242634973
1698,,0.0016337966603831
1699,,0.0016401889119543
1700,,0.0016439704189223
1701,,0.0016451230419149
1702,,0.0016436412464198
1703,,0.0016395321470517
1704,,0.0016328154506504
1705,,0.0016235232988443
1706,,0.0016117000118409
1707,,0.001597401736301
1708,,0.0015806960012115
1709,,0.0015616611866727
1710,,0.0015403859114456
1711,,0.001516968345955
1712,,0.0014915154581978
1713,,0.0014641422006546
1714,,0.0014349706468456
1715,,0.0014041290865882
1716,,0.0013717510893169
1717,,0.0013379745449983
1718,,0.0013029406922255
1719,,0.0012667931430075
1720,,0.0012296769135736
1721,,0.0011917374702156
1722,,0.0011531197987777
1723,,0.0011139675058994
1724,,0.0010744219595221
1725,,0.0010346214755023
1726,,0.0009947005564376
1727,,0.0009547891880266
1728,,0.0009150121974607
1729,,0.0008754886774909
1730,,0.0008363314789538
1731,,0.0007976467736716
1732,,0.0007595336887937
1733,,0.0007220840128166
1734,,0.0006853819727223
1735,,0.0006495040809296
1736,,0.0006145190500488
1737,,0.0005804877727934
1738,,0.0005474633638293
1739,,0.0005154912598366
1740,,0.0004846093736288
1741,,0.0004548482978219
1742,,0.0004262315532628
1743,,0.0003987758772283
1744,,0.0003724915462728
1745,,0.0003473827285482
1746,,0.0003234478604275
1747,,0.0003006800423388
1748,,0.0002790674488464
1749,,0.0002585937482007
1750,,0.0002392385268078
1751,,0.0002209777143416
1752,,0.0002037840055227
1753,,0.0001876272749204
1754,,0.0001724749814825
1755,,0.0001582925598641
1756,,0.0001450437959958
1757,,0.0001326911847081
1758,,0.0001211962675969
1759,,0.0001105199496781
1760,,0.0001006227937306
1761,,9.146529155648636e-05
1762,,8.300811170591758e-05
1763,,7.521232350244511e-05
1764,,6.803959747394119e-05
1765,,6.145238253631548e-05
1766,,5.5414060492466384e-05
1767,,4.988907859755389e-05
1768,,4.4843061103029995e-05
1769,,4.024290082655272e-05
1770,,3.6056831903653015e-05
1771,,3.225448496090724e-05
1772,,2.8806926010716703e-05
1773,,2.568668040624662e-05
1774,,2.2867743213271704e-05
1775,,2.0325577355567654e-05
1776,,1.8037100873991303e-05
1777,,1.5980664608455278e-05
1778,,1.4136021568689553e-05
1779,,1.2484289205888204e-05
1780,,1.100790573499569e-05
1781,,9.69058158828306e-06
1782,,8.51724700673942e-06
1783,,7.473996698219589e-06
1784,,6.548032411709077e-06
1785,,5.727604196800175e-06
1786,,5.0019510377013965e-06
1787,,4.361241472809282e-06
1788,,3.7965147349612175e-06
1789,,3.2996228746840095e-06
1790,,2.8631742596049487e-06
1791,,2.4804787782255413e-06
1792,,2.1454950157614054e-06
1793,,1.8527796139659192e-06
1794,,1.597438975933996e-06
1795,,1.3750834308170842e-06
1796,,1.181783932183242e-06
1797,,1.0140313272885326e-06
1798,,8.686982026306823e-07
1799,,7.430032836440414e-07
1800,,6.344783430032229e-07
1801,,5.40937552461964e-07
1802,,4.60449197194363e-07
1803,,3.913096589046996e-07
1804,,3.320195642315285e-07
1805,,2.812619878977913e-07
1806,,2.3788259533022154e-07
1807,,2.0087160682329686e-07
1808,,1.6934746445977213e-07
1809,,1.4254208367079042e-07
1810,,1.1978757327647788e-07
1811,,1.0050431086810945e-07
1812,,8.41902642696326e-08
1813,,7.04114543635991e-08
1814,,5.8793459617720747e-08
1815,,4.901386805604672e-08
1816,,4.079558805416666e-08
1817,,3.3900935089781e-08
1818,,2.8126417353287474e-08
1819,,2.32981488385199e-08
1820,,1.926782412571221e-08
1821,,1.5909194484656893e-08
1822,,1.31149901244882e-08
1823,,1.0794238366627582e-08
1824,,8.869932196979415e-09
1825,,7.277008048154813e-09
1826,,5.960595764609005e-09
1827,,4.874507510992089e-09
1828,,3.979935899278714e-09
1829,,3.244334839685318e-09
1830,,2.640459573351554e-09
1831,,2.1455450328895142e-09
1832,,1.7406041135796132e-09
1833,,1.4098296377456091e-09
1834,,1.140085772982456e-09
1835,,9.204764370708779e-10
1836,,7.41979804292898e-10
1837,,5.971394349315461e-10
1838,,4.798037970549904e-10
1839,,3.8490705172837586e-10
1840,,3.0828494334858214e-10
1841,,2.465204888606963e-10
1842,,1.968149053592839e-10
1843,,1.5687986631087734e-10
1844,,1.2484774278982637e-10
1845,,9.919697727233303e-11
1846,,7.86901624126997e-11
1847,,6.23227637526719e-11
1848,,4.928074063884245e-11
1849,,3.8905590167270504e-11
1850,,3.0665570482683925e-11
1851,,2.4132057346631364e-11
1852,,1.8960156090390114e-11
1853,,1.4872833890062246e-11
1854,,1.1647958268135572e-11
1855,,9.107729927460688e-12
1856,,7.110084159201806e-12
1857,,5.541707484991377e-12
1858,,4.312376933366533e-12
1859,,3.3503801736972978e-12
1860,,2.598817156052891e-12
1861,,2.0126192376999236e-12
1862,,1.5561511339016537e-12
1863,,1.2012853668961248e-12
1864,,9.258590150947112e-13
1865,,7.124391746608954e-13
1866,,5.473372218469404e-13
1867,,4.198231999286217e-13
1868,,3.2150086446910066e-13
1869,,2.4581145355437593e-13
1870,,1.8764039748118306e-13
1871,,1.4300618893386166e-13
1872,,1.0881470303814549e-13
1873,,8.266555555683196e-14
1874,,6.269975673064079e-14
1875,,4.748007346560855e-14
1876,,3.5897249051223244e-14
1877,,2.7096625775495132e-14
1878,,2.0420836031046963e-14
1879,,1.536512445521768e-14
1880,,1.1542580335886952e-14
1881,,8.657130991687612e-15
1882,,6.482601589053321e-15
1883,,4.846507991502117e-15
1884,,3.617535439946323e-15
1885,,2.6958822244844036e-15
1886,,2.0058261794742593e-15
1887,,1.490012579077843e-15
1888,,1.105072658563171e-15
1889,,8.182688001643284e-16
1890,,6.049304001553928e-16
1891,,4.464975573549484e-16
1892,,3.290311565717943e-16
1893,,2.4208017253051053e-16
1894,,1.7782207586600915e-16
1895,,1.3041165036310534e-16
1896,,9.548856474779586e-17
1897,,6.980565397424726e-17
1898,,5.094881585219132e-17
1899,,3.712631538996464e-17
1900,,2.7010577296082234e-17
1901,,1.9619599913419132e-17
1902,,1.4228224042174168e-17
1903,,1.0301857036628225e-17
1904,,7.447056220187297e-18
1905,,5.374747483698289e-18
1906,,3.872896326725912e-18
1907,,2.7862376627246857e-18
1908,,2.0012674491355114e-18
1909,,1.4351496473547507e-18
1910,,1.0275313919189321e-18
1911,,7.345144608225564e-19
1912,,5.242227018669238e-19
1913,,3.735485889910188e-19
1914,,2.657694068433916e-19
1915,,1.8880367056582952e-19
1916,,1.3393807172037326e-19
1917,,9.489962629985186e-20
1918,,6.718064826757619e-20
1919,,4.754858542546892e-20
1920,,3.3690812416121587e-20
1921,,2.3957810337171015e-20
1922,,1.7177994021822392e-20
1923,,1.2524687320354668e-20
1924,,9.421072513997282e-21
1925,,7.47285761209016e-21
1926,,6.4212906460329765e-21
1927,,6.1112829495752984e-21
1928,,6.470992459342589e-21
1929,,7.500419694964608e-21
1930,,9.26750172780367e-21
1931,,1.19109444580961e-20
1932,,1.5649683494619975e-20
1933,,2.079946932371199e-20
1934,,2.7797686932738995e-20
1935,,3.7238195074398653e-20
1936,,4.991875933770439e-20
1937,,6.690461558267912e-20
1938,,8.96129058836145e-20
1939,,1.1992426282987845e-19
1940,,1.6032978553525248e-19
1941,,2.1412418525149058e-19
1942,,2.8565914926155506e-19
1943,,3.806751943349356e-19
1944,,5.0673573056803e-19
1945,,6.73794084033113e-19
1946,,8.949332802628507e-19
1947,,1.187330041173802e-18
1948,,1.5735094225807518e-18
1949,,2.082975742547629e-18
1950,,2.7543300967917586e-18
1951,,3.6380163158301386e-18
1952,,4.7998775765743895e-18
1953,,6.325757425905489e-18
1954,,8.327444721383747e-18
1955,,1.0950345749760009e-17
1956,,1.4383373341448205e-17
1957,,1.8871678190396038e-17
1958,,2.4733019392493418e-17
1959,,3.237878894073406e-17
1960,,4.23409804761562e-17
1961,,5.5306740897651875e-17
1962,,7.21625831076086e-17
1963,,9.405089245479452e-17
1964,,1.2244205728847114e-16
1965,,1.592264314877803e-16
1966,,2.068314386433792e-16
1967,,2.6837050928422584e-16
1968,,3.47832272972679e-16
1969,,4.503205913665442e-16
1970,,5.8235872163887795e-16
1971,,7.522742716966825e-16
1972,,9.706858092714214e-16
1973,,1.2511172127599569e-15
1974,,1.6107723441457284e-15
1975,,2.0715106795909546e-15
1976,,2.661074514070585e-15
1977,,3.4146307062790274e-15
1978,,4.3767051906093494e-15
1979,,5.603607314685994e-15
1980,,7.166464267747532e-15
1981,,9.155014424544158e-15
1982,,1.1682343527765602e-14
1983,,1.4890790707272733e-14
1984,,1.8959304126766257e-14
1985,,2.411259066061807e-14
1986,,3.0632482972281124e-14
1987,,3.887204374687724e-14
1988,,4.9273044299799805e-14
1989,,6.238759775432592e-14
1990,,7.890490074669708e-14
1991,,9.968424851244778e-14
1992,,1.2579574380551513e-13
1993,,1.5857042943828288e-13
1994,,1.996619480725955e-13
1995,,2.511222840453646e-13
1996,,3.154946856862753e-13
1997,,3.959275208112165e-13
1998,,4.963136041968173e-13
1999,,6.214604790814592e-13
2000,,7.772982648517402e-13
2001,,9.711330351056353e-13
2002,,1.2119553054378065e-12
2003,,1.5108151369320178e-12
2004,,1.8812776561365348e-12
2005,,2.339975521523343e-12
2006,,2.907278107479188e-12
2007,,3.6081010199504656e-12
2008,,4.4728841079048515e-12
2009,,5.5387715136570244e-12
2010,,6.851033654109266e-12
2011,,8.464778507539898e-12
2012,,1.044700838551556e-11
2013,,1.2879088714403863e-11
2014,,1.5859707486166176e-11
2015,,1.9508418251048612e-11
2016,,2.3969876144854136e-11
2017,,2.9418895847396036e-11
2018,,3.606648298636933e-11
2019,,4.416701682198215e-11
2020,,5.4026792628683434e-11
2021,,6.60141676624042e-11
2022,,8.057159567907837e-11
2023,,9.822988245922558e-11
2024,,1.1962504960245002e-10
2025,,1.4551825700584186e-10
2026,,1.7681930707615858e-10
2027,,2.1461433712773536e-10
2028,,2.601984020146824e-10
2029,,3.15113758426924e-10
2030,,3.8119478720916415e-10
2031,,4.6062063249293917e-10
2032,,5.5597679852e-10
2033,,6.703271291522681e-10
2034,,8.072978038126318e-10
2035,,9.711752198282007e-10
2036,,1.1670198979573291e-09
2037,,1.400798848644594e-09
2038,,1.6795391749143011e-09
2039,,2.0115060677194915e-09
2040,,2.406408775236856e-09
2041,,2.875638603560035e-09
2042,,3.432543537309308e-09
2043,,4.0927446599436774e-09
2044,,4.874500210406775e-09
2045,,5.799123840793821e-09
2046,,6.8914644448517944e-09
2047,,8.18045581538484e-09
2048,,9.699745366244628e-09
2049,,1.1488412227863856e-08
2050,,1.3591786200589914e-08
2051,,1.606238033371354e-08
2052,,1.8960951296260855e-08
2053,,2.2357703224235312e-08
2054,,2.633365237369651e-08
2055,,3.0982171684867044e-08
2056,,3.641073627382678e-08
2057,,4.27428929188428e-08
2058,,5.012047880054613e-08
2059,,5.8706117090256526e-08
2060,,6.868601945858434e-08
2061,,8.027312819501866e-08
2062,,9.371063338453922e-08
2063,,1.0927590347297177e-07
2064,,1.272848705599171e-07
2065,,1.4809691487453858e-07
2066,,1.7212029610002368e-07
2067,,1.998181824981314e-07
2068,,2.317153321226961e-07
2069,,2.68405483772963e-07
2070,,3.1055951869170716e-07
2071,,3.589344573220095e-07
2072,,4.143833586568466e-07
2073,,4.778661928016883e-07
2074,,5.504617602563589e-07
2075,,6.333807340698158e-07
2076,,7.279799033397683e-07
2077,,8.357776984416311e-07
2078,,9.584710798421308e-07
2079,,1.097953873222425e-06
2080,,1.2563366338749577e-06
2081,,1.4359681228093735e-06
2082,,1.6394584756250067e-06
2083,,1.86970414282409e-06
2084,,2.129914676823721e-06
2085,,2.423641436235178e-06
2086,,2.7548082720135375e-06
2087,,3.1277442526285177e-06
2088,,3.5472184763946625e-06
2089,,4.018477008378869e-06
2090,,4.547281966768664e-06
2091,,5.1399527691161265e-06
2092,,5.803409532373749e-06
2093,,6.545218601994345e-06
2094,,7.373640164515064e-06
2095,,8.297677874910159e-06
2096,,9.327130404517395e-06
2097,,1.0472644787506622e-05
2098,,1.1745771413652788e-05
2099,,1.3159020482617402e-05
2100,,1.4725919700098195e-05
2101,,1.646107295914653e-05
2102,,1.8380219710813647e-05
2103,,2.0500294687230703e-05
2104,,2.2839487597438065e-05
2105,,2.5417302372035305e-05
2106,,2.8254615487316215e-05
2107,,3.137373285328828e-05
2108,,3.479844470330113e-05
2109,,3.855407787634046e-05
2110,,4.2667544836860466e-05
2111,,4.716738873190967e-05
2112,,5.208382374180399e-05
2113,,5.744876993936947e-05
2114,,6.329588183451125e-05
2115,,6.966056974622896e-05
2116,,7.658001311400248e-05
2117,,8.409316483541327e-05
2118,,9.224074569785164e-05
2119,,0.0001010652279598
2120,,0.0001106108071327
2121,,0.0001209233610178
2122,,0.000132050395065
2123,,0.0001440409731449
2124,,0.0001569456328566
2125,,0.0001708162845388
2126,,0.0001857060932113
2127,,0.0002016693427362
2128,,0.0002187612815779
2129,,0.0002370379496274
2130,,0.0002565559856704
2131,,0.0002773724151952
2132,,0.0002995444183725
2133,,0.0003231290781855
2134,,0.0003481831088452
2135,,0.0003747625648006
2136,,0.0004029225308301
2137,,0.0004327167938942
2138,,0.000464197497628
2139,,0.0004974147805585
2140,,0.0005324163993449
2141,,0.0005692473385534
2142,,0.0006079494086989
2143,,0.0006485608344997
2144,,0.0006911158355092
2145,,0.0007356442014949
2146,,0.0007821708651399
2147,,0.0008307154748309
2148,,0.0008812919704791
2149,,0.0009339081654803
2150,,0.0009885653380693
2151,,0.0010452578354454
2152,,0.0011039726941492
2153,,0.0011646892802449
2154,,0.0012273789529107
2155,,0.0012920047550566
2156,,0.0013585211345736
2157,,0.0014268736997712
2158,,0.0014969990124734
2159,,0.0015688244221275
2160,,0.0016422679441205
2161,,0.0017172381853059
2162,,0.0017936343195124
2163,,0.0018713461155416
2164,,0.0019502540198565
2165,,0.0020302292958315
2166,,0.0021111342210619
2167,,0.0021928223438402
2168,,0.0022751387994753
2169,,0.0023579206866916
2170,,0.00244099750387
2171,,0.0025241916444162
2172,,0.0026073189500423
2173,,0.0026901893202485
2174,,0.0027726073757873
2175,,0.0028543731733904
2176,,0.002935282968547
2177,,0.003015130022642
2178,,0.0030937054503007
2179,,0.0031707991023515
2180,,0.003246200479407
2181,,0.0033196996706928
2182,,0.0033910883124149
2183,,0.0034601605596653
2184,,0.0035267140656201
2185,,0.0035905509615878
2186,,0.0036514788313255
2187,,0.0037093116729545
2188,,0.0037638708417805
2189,,0.0038149859673551
2190,,0.0038624958382096
2191,,0.0039062492478429
2192,,0.0039461057957607
2193,,0.0039819366376314
2194,,0.0040136251789551
2195,,0.0040410677070197
2196,,0.0040641739563531
2197,,0.0040828676033578
2198,,0.004097086686334
2199,,0.0041067839476585
2200,,0.0041119270954739
2201,,0.004112498982861
2202,,0.0041084977031039
2203,,0.0040999366003062
2204,,0.0040868441952784
2205,,0.0040692640272712
2206,,0.0040472544127849
2207,,0.0040208881233271
2208,,0.0039902519846091
2209,,0.0039554464002734
2210,,0.0039165848038084
2211,,0.0038737930428384
2212,,0.0038272087004667
2213,,0.0037769803587934
2214,,0.0037232668101231
2215,,0.0036662362217217
2216,,0.003606065260263
2217,,0.0035429381823373
2218,,0.00347704589756
2219,,0.0034085850109268
2220,,0.0033377568511099
2221,,0.0032647664913776
2222,,0.0031898217697486
2223,,0.0031131323148648
2224,,0.0030349085838855
2225,,0.0029553609184716
2226,,0.0028746986246483
2227,,0.0027931290820089
2228,,0.0027108568873586
2229,,0.0026280830374956
2230,,0.0025450041553989
2231,,0.0024618117636354
2232,,0.0023786916083236
2233,,0.0022958230365026
2234,,0.0022133784292559
2235,,0.0021315226924339
2236,,0.0020504128063208
2237,,0.0019701974350904
2238,,0.0018910165964141
2239,,0.0018130013911085
2240,,0.0017362737922621
2241,,0.0016609464928494
2242,,0.0015871228104362
2243,,0.0015148966472079
2244,,0.001444352503207
2245,,0.0013755655403585
2246,,0.0013086016945846
2247,,0.0012435178330738
2248,,0.0011803619535647
2249,,0.0011191734223425
2250,,0.0010599832475157
2251,,0.0010028143840494
2252,,0.0009476820669748
2253,,0.0008945941691705
2254,,0.0008435515801243
2255,,0.00079454860212
2256,,0.0007475733603658
2257,,0.0007026082236761
2258,,0.0006596302324357
2259,,0.0006186115307179
2260,,0.0005795197995859
2261,,0.0005423186887829
2262,,0.0005069682442041
2263,,0.0004734253287441
2264,,0.0004416440343183
2265,,0.0004115760830728
2266,,0.0003831712160097
2267,,0.0003563775674726
2268,,0.000331142024154
2269,,0.0003074105674926
2270,,0.000285128598541
2271,,0.0002642412445774
2272,,0.0002446936469312
2273,,0.0002264312296675
2274,,0.0002093999489508
2275,,0.0001935465230625
2276,,0.0001788186431952
2277,,0.0001651651652781
2278,,0.0001525362832079
2279,,0.0001408836839656
2280,,0.0001301606851922
2281,,0.0001203223558751
2282,,0.0001113256208634
2283,,0.0001031293499822
2284,,9.56944325596288e-05
2285,,8.89838382063104e-05
2286,,8.296266470740873e-05
2287,,7.759817389409144e-05
2288,,7.285981635996306e-05
2289,,6.871924587718549e-05
2290,,6.515032434866515e-05
2291,,6.212911810707628e-05
2292,,5.963388633970909e-05
2293,,5.7645062380986554e-05
2294,,5.614522857279425e-05
2295,,5.51190853473991e-05
2296,,5.455341513944452e-05
2297,,5.443704168306797e-05
2298,,5.476078519837801e-05
2299,,5.551741391894818e-05
2300,,5.670159235938785e-05
2301,,5.830982666994083e-05
2302,,6.0340407374068474e-05
2303,,6.27933497355502e-05
2304,,6.567033195428714e-05
2305,,6.897463134509547e-05
2306,,7.271105861169066e-05
2307,,7.688589028917048e-05
2308,,8.150679939278328e-05
2309,,8.658278427888923e-05
2310,,9.212409569606804e-05
2311,,9.814216198018396e-05
2312,,0.0001046495123273
2313,,0.000111659698063
2314,,0.0001191872118135
2315,,0.0001272474044792
2316,,0.0001358563999058
2317,,0.0001450310071496
2318,,0.0001547886302398
2319,,0.0001651471753471
2320,,0.0001761249552836
2321,,0.0001877405912723
2322,,0.0002000129119466
2323,,0.0002129608495617
2324,,0.0002266033334268
2325,,0.000240959180595
2326,,0.0002560469838794
2327,,0.0002718849972983
2328,,0.0002884910190864
2329,,0.0003058822724461
2330,,0.0003240752842539
2331,,0.0003430857619712
2332,,0.0003629284690555
2333,,0.0003836170992002
2334,,0.0004051641497789
2335,,0.0004275807949037
2336,,0.0004508767585488
2337,,0.0004750601882261
2338,,0.0005001375297371
2339,,0.0005261134035554
2340,,0.0005529904834299
2341,,0.0005807693778218
2342,,0.0006094485148172
2343,,0.0006390240311766
2344,,0.0006694896662009
2345,,0.0007008366611058
2346,,0.000733053664606
2347,,0.0007661266454156
2348,,0.0008000388123659
2349,,0.0008347705428418
2350,,0.0008702993202203
2351,,0.0009065996809814
2352,,0.0009436431721368
2353,,0.0009813983195944
2354,,0.0010198306080413
2355,,0.0010589024728894
2356,,0.0010985733047815
2357,,0.0011387994671046
2358,,0.0011795343269024
2359,,0.0012207282995176
2360,,0.0012623289072264
2361,,0.0013042808520625
2362,,0.0013465261029484
2363,,0.0013890039971786
2364,,0.0014316513562153
2365,,0.0014744026156764
2366,,0.0015171899693086
2367,,0.0015599435266526
2368,,0.0016025914840197
2369,,0.0016450603083113
2370,,0.0016872749331253
2371,,0.001729158966508
2372,,0.0017706349096255
2373,,0.0018116243855464
2374,,0.0018520483772496
2375,,0.0018918274738968
2376,,0.001930882124338
2377,,0.001969132896754
2378,,0.0020065007432804
2379,,0.0020429072684058
2380,,0.0020782749998883
2381,,0.0021125276608984
2382,,0.0021455904420646
2383,,0.0021773902720735
2384,,0.0022078560854648
2385,,0.002236919086254
2386,,0.0022645130060189
2387,,0.0022905743550995
2388,,0.0023150426655808
2389,,0.00233786072476
2390,,0.0023589747978373
2391,,0.0023783348386173
2392,,0.0023958946870678
2393,,0.0024116122526418
2394,,0.0024254496823463
2395,,0.0024373735126174
2396,,0.0024473548041492
2397,,0.0024553692589166
2398,,0.0024613973187286
2399,,0.0024654242447541
2400,,0.0024674401775656
2401,,0.0024674401773609
2402,,0.0024654242441306
2403,,0.0024613973176576
2404,,0.0024553692573486
2405,,0.0024473548020125
2406,,0.0024373735098144
2407,,0.0024254496787502
2408,,0.0024116122480909
2409,,0.0023958946813593
2410,,0.0023783348314991
2411,,0.002358974788998
2412,,0.0023378607138169
2413,,0.0023150426520645
2414,,0.0022905743384367
2415,,0.0022645129855101
2416,,0.0022369190610477
2417,,0.0022078560545256
2418,,0.0021773902341449
2419,,0.0021455903956232
2420,,0.0021125276040999
2421,,0.0020782749305024
2422,,0.0020429071837392
2423,,0.0020065006400842
2424,,0.0019691327711138
2425,,0.0019308819715435
2426,,0.0018918272882865
2427,,0.0018520481520269
2428,,0.0018116241125616
2429,,0.0017706345791181
2430,,0.0017291585668022
2431,,0.0016872744502706
2432,,0.0016450597256595
2433,,0.0016025907817263
2434,,0.0015599426810918
2435,,0.0015171889523859
2436,,0.0014744013940234
2437,,0.0014316498902468
2438,,0.0013890022399906
2439,,0.0013465239990312
2440,,0.0013042783358002
2441,,0.0012623259011499
2442,,0.001220724712273
2443,,0.0011795300508915
2444,,0.0011387943757486
2445,,0.0010985672493519
2446,,0.0010588952788418
2447,,0.0010198220707813
2448,,0.0009813881995935
2449,,0.0009436311893057
2450,,0.0009065855081973
2451,,0.0008702825758911
2452,,0.0008347507823757
2453,,0.0008000155183987
2454,,0.0007660992166298
2455,,0.0007330214029577
2456,,0.0007007987572518
2457,,0.0006694451828974
2458,,0.000638971884391
2459,,0.0006093874522723
2460,,0.0005806979546547
2461,,0.0005529070346186
2462,,0.0005260160127288
2463,,0.0005000239939444
2464,,0.0004749279782011
2465,,0.0004507229739566
2466,,0.0004274021140124
2467,,0.000404956772944
2468,,0.0003833766854959
2469,,0.0003626500653282
2470,,0.0003427637235289
2471,,0.0003237031863391
2472,,0.0003054528115738
2473,,0.0002879959032535
2474,,0.0002713148240017
2475,,0.0002553911047976
2476,,0.0002402055517148
2477,,0.0002257383493102
2478,,0.0002119691603713
2479,,0.0001988772217607
2480,,0.0001864414361407
2481,,0.0001746404593913
2482,,0.0001634527835739
2483,,0.0001528568153245
2484,,0.0001428309495944
2485,,0.0001333536386867
2486,,0.0001244034565658
2487,,0.0001159591584455
2488,,0.0001079997356866
2489,,0.000100504466059
2490,,9.345295944452512e-05
2491,,8.682519907786161e-05
2492,,8.060157843949858e-05
2493,,7.476293393159742e-05
2494,,6.929057348133754e-05
2495,,6.416630122847842e-05
2496,,5.9372438464118745e-05
2497,,5.489184099617301e-05
2498,,5.070791312381674e-05
2499,,4.6804618408251414e-05
2500,,4.3166487430713975e-05
2501,,3.977862273073297e-05
2502,,3.6626701118336915e-05
2503,,3.369697355339153e-05
2504,,3.097626278348192e-05
2505,,2.8451958928991445e-05
2506,,2.611201320028025e-05
2507,,2.3944929927218525e-05
2508,,2.1939757076019027e-05
2509,,2.0086075422235515e-05
2510,,1.837398654223182e-05
2511,,1.6794099778378348e-05
2512,,1.5337518325758015e-05
2513,,1.3995824580483862e-05
2514,,1.2761064881732731e-05
2515,,1.1625733771535876e-05
2516,,1.0582757888199964e-05
2517,,9.625479601042755e-06
2518,,8.747640486025171e-06
2519,,7.943364733818731e-06
2520,,7.207142573980905e-06
2521,,6.533813791234147e-06
2522,,5.918551402368287e-06
2523,,5.356845555108131e-06
2524,,4.844487703358483e-06
2525,,4.377555106646774e-06
2526,,3.95239569528713e-06
2527,,3.5656133368582658e-06
2528,,3.2140535339829705e-06
2529,,2.8947895781523612e-06
2530,,2.6051091794589773e-06
2531,,2.342501587554875e-06
2532,,2.1046452149792277e-06
2533,,1.8893957701630847e-06
2534,,1.6947749039140176e-06
2535,,1.5189593700279936e-06
2536,,1.3602706978063337e-06
2537,,1.217165371734431e-06
2538,,1.0882255112954825e-06
2539,,9.721500419454623e-07
2540,,8.677463465338028e-07
2541,,7.739223850061127e-07
2542,,6.896792689778461e-07
2543,,6.141042767449823e-07
2544,,5.46364293476852e-07
2545,,4.856996606987596e-07
2546,,4.314184186916769e-07
2547,,3.828909251219587e-07
2548,,3.3954483303414913e-07
2549,,3.0086041127963185e-07
2550,,2.6636619050753057e-07
2551,,2.3563491799964837e-07
2552,,2.0827980486683656e-07
2553,,1.8395104943747025e-07
2554,,1.6233262104581205e-07
2555,,1.4313928885888186e-07
2556,,1.261138808561857e-07
2557,,1.1102475858922903e-07
2558,,9.766349388874121e-08
2559,,8.584273425040287e-08
2560,,7.53942442080973e-08
2561,,6.616711059143823e-08
2562,,5.802610015675794e-08
2563,,5.085015867313131e-08
2564,,4.453104113338031e-08
2565,,3.8972063341322544e-08
2566,,3.4086965697242726e-08
2567,,2.9798880561818934e-08
2568,,2.6039395122081723e-08
2569,,2.2747702209854203e-08
2570,,1.9869832032382087e-08
2571,,1.7357958265219557e-08
2572,,1.5169772428517534e-08
2573,,1.3267920919034383e-08
2574,,1.1619499501337121e-08
2575,,1.0195600472835252e-08
2576,,8.970908108648895e-09
2577,,7.923338364226291e-09
2578,,7.033719166673144e-09
2579,,6.285507960449411e-09
2580,,5.664543490276043e-09
2581,,5.158829104515215e-09
2582,,4.758345146849983e-09
2583,,4.454888273763846e-09
2584,,4.241935791042965e-09
2585,,4.114533345368538e-09
2586,,4.0692045380427045e-09
2587,,4.103881248074371e-09
2588,,4.217853662309831e-09
2589,,4.411739212089576e-09
2590,,4.6874698101195854e-09
2591,,5.048296968909779e-09
2592,,5.49881456430335e-09
2593,,6.044999185314033e-09
2594,,6.694268185706557e-09
2595,,7.455555724488382e-09
2596,,8.339407252648698e-09
2597,,9.358093073048662e-09
2598,,1.0525741770180336e-08
2599,,1.1858494477453073e-08
2600,,1.3374681122552954e-08
2601,,1.509501996701912e-08
2602,,1.7042841935233437e-08
2603,,1.9244341411262077e-08
2604,,2.1728855369967983e-08
2605,,2.4529172902276505e-08
2606,,2.7681877393823095e-08
2607,,3.1227723822015155e-08
2608,,3.52120538492462e-08
2609,,3.9685251609832096e-08
2610,,4.4703243315703865e-08
2611,,5.032804404097709e-08
2612,,5.6628355288492255e-08
2613,,6.368021719230728e-08
2614,,7.156771946879484e-08
2615,,8.038377549531536e-08
2616,,9.023096416929461e-08
2617,,1.0122244448109633e-07
2618,,1.1348294802145849e-07
2619,,1.2714985493716858e-07
2620,,1.423743591466337e-07
2621,,1.5932272892918145e-07
2622,,1.7817766930658864e-07
2623,,1.9913979294208697e-07
2624,,2.2242920658850985e-07
2625,,2.4828722042218714e-07
2626,,2.769781879007912e-07
2627,,3.087914840789765e-07
2628,,3.4404363060362897e-07
2629,,3.830805758878625e-07
2630,,4.262801392264403e-07
2631,,4.74054627865884e-07
2632,,5.26853636260679e-07
2633,,5.851670369709109e-07
2634,,6.495281728115418e-07
2635,,7.20517260024631e-07
2636,,7.987650123577218e-07
2637,,8.84956495991141e-07
2638,,9.798352252984937e-07
2639,,1.0842075093867967e-06
2640,,1.1989470592973026e-06
2641,,1.324999865600417e-06
2642,,1.463389355914111e-06
2643,,1.615221841605024e-06
2644,,1.7816922625637626e-06
2645,,1.9640902385202255e-06
2646,,2.163806434821479e-06
2647,,2.3823392499827255e-06
2648,,2.6213018315745964e-06
2649,,2.882429426190745e-06
2650,,3.1675870682678357e-06
2651,,3.47877761146893e-06
2652,,3.818150105125112e-06
2653,,4.188008516911608e-06
2654,,4.590820801435969e-06
2655,,5.029228312826259e-06
2656,,5.506055557623868e-06
2657,,6.024320282370685e-06
2658,,6.587243888222234e-06
2659,,7.198262162672853e-06
2660,,7.861036316101329e-06
2661,,8.579464308296279e-06
2662,,9.35769244740901e-06
2663,,1.0200127240910397e-05
2664,,1.1111447475117357e-05
2665,,1.20966164966518e-05
2666,,1.3160894665893244e-05
2667,,1.4309851948991885e-05
2668,,1.5549380611419853e-05
2669,,1.6885707972291013e-05
2670,,1.8325409174842908e-05
2671,,1.9875419924514224e-05
2672,,2.1543049142018864e-05
2673,,2.3335991474691033e-05
2674,,2.5262339605222463e-05
2675,,2.733059629270029e-05
2676,,2.9549686076637543e-05
2677,,3.19289665704878e-05
2678,,3.447823926694954e-05
2679,,3.7207759773275115e-05
2680,,4.0128247390772824e-05
2681,,4.325089394879529e-05
2682,,4.65873717997709e-05
2683,,5.014984087829497e-05
2684,,5.395095472396178e-05
2685,,5.800386536456894e-05
2686,,6.23222269535625e-05
2687,,6.692019805316305e-05
2688,,7.181244245259744e-05
2689,,7.701412840921506e-05
2690,,8.254092619913263e-05
2691,,8.840900386336776e-05
2692,,9.463502103535596e-05
2693,,0.0001012361207361
2694,,0.0001082299190248
2695,,0.0001156344923931
2696,,0.000123468362796
2697,,0.0001317504802133
2698,,0.0001405002026406
2699,,0.000149737273413
2700,,0.0001594817957717
2701,,0.0001697542045877
2702,,0.0001805752351655
2703,,0.0001919658890588
2704,,0.0002039473968369
2705,,0.000216541177752
2706,,0.0002297687962677
2707,,0.0002436519154226
2708,,0.0002582122470111
2709,,0.0002734714985829
2710,,0.0002894513172704
2711,,0.000306173230475
2712,,0.0003236585834533
2713,,0.0003419284738636
2714,,0.0003610036833506
2715,,0.0003809046062624
2716,,0.0004016511756133
2717,,0.0004232627864236
2718,,0.0004457582165885
2719,,0.0004691555454453
2720,,0.0004934720702298
2721,,0.0005187242206304
2722,,0.0005449274716704
2723,,0.0005720962551657
2724,,0.0006002438700266
2725,,0.0006293823916903
2726,,0.0006595225809881
2727,,0.0006906737927714
2728,,0.0007228438846342
2729,,0.0007560391260883
2730,,0.0007902641085614
2731,,0.0008255216566008
2732,,0.0008618127406811
2733,,0.0008991363920201
2734,,0.0009374896198216
2735,,0.0009768673313675
2736,,0.0010172622553901
2737,,0.0010586648691561
2738,,0.0011010633297004
2739,,0.0011444434096418
2740,,0.0011887884380137
2741,,0.0012340792465381
2742,,0.0012802941217607
2743,,0.0013274087634594
2744,,0.0013753962497222
2745,,0.0014242270090791
2746,,0.0014738688000529
2747,,0.0015242866984764
2748,,0.0015754430928984
2749,,0.0016272976883796
2750,,0.0016798075189493
2751,,0.0017329269689671
2752,,0.0017866078036008
2753,,0.0018407992085976
2754,,0.0018954478394926
2755,,0.0019504978803573
2756,,0.0020058911121548
2757,,0.0020615669907265
2758,,0.0021174627343932
2759,,0.002173513421109
2760,,0.0022296520950655
2761,,0.0022858098825949
2762,,0.0023419161171799
2763,,0.0023978984733276
2764,,0.0024536831090247
2765,,0.0025091948164413
2766,,0.0025643571805101
2767,,0.0026190927449609
2768,,0.0026733231853493
2769,,0.0027269694885775
2770,,0.0027799521383644
2771,,0.0028321913060856
2772,,0.0028836070463672
2773,,0.0029341194967847
2774,,0.0029836490809891
2775,,0.0030321167145514
2776,,0.0030794440127955
2777,,0.0031255534998658
2778,,0.0031703688182594
2779,,0.0032138149380373
2780,,0.0032558183649196
2781,,0.0032963073464609
2782,,0.0033352120755027
2783,,0.0033724648900978
2784,,0.0034080004691069
2785,,0.0034417560226811
2786,,0.0034736714768512
2787,,0.0035036896514677
2788,,0.0035317564307541
2789,,0.0035578209257613
2790,,0.0035818356280423
2791,,0.0036037565538974
2792,,0.0036235433785761
2793,,0.0036411595598649
2794,,0.0036565724505287
2795,,0.003669753399123
2796,,0.0036806778387403
2797,,0.003689325363307
2798,,0.0036956797910978
2799,,0.0036997292151922
2800,,0.0037014660406519
2801,,0.0037008870082568
2802,,0.0036979932046969
2803,,0.0036927900591736
2804,,0.0036852873264266
2805,,0.0036754990562603
2806,,0.0036634435497034
2807,,0.0036491433019915
2808,,0.0036326249326243
2809,,0.0036139191027987
2810,,0.0035930604205781
2811,,0.0035700873342082
2812,,0.003545042014039
2813,,0.0035179702235606
2814,,0.0034889211801059
2815,,0.0034579474058114
2816,,0.0034251045694694
2817,,0.0033904513199371
2818,,0.0033540491117991
2819,,0.0033159620240095
2820,,0.00327625657226
2821,,0.003235001515842
2822,,0.0031922676597873
2823,,0.0031481276530791
2824,,0.0031026557837379
2825,,0.0030559277715848
2826,,0.0030080205594891
2827,,0.0029590121038974
2828,,0.0029089811654364
2829,,0.0028580071003674
2830,,0.0028061696536546
2831,,0.00275354875439
2832,,0.0027002243142943
2833,,0.002646276029987
2834,,0.0025917831896911
2835,,0.0025368244850026
2836,,0.0024814778283255
2837,,0.0024258201765314
2838,,0.0023699273613675
2839,,0.0023138739270948
2840,,0.0022577329757972
2841,,0.0022015760207576
2842,,0.002145472848255
2843,,0.0020894913880895
2844,,0.002033697593099
2845,,0.001978155327884
2846,,0.0019229262669126
2847,,0.0018680698021325
2848,,0.0018136429601727
2849,,0.0017597003291729
2850,,0.0017062939952372
2851,,0.0016534734884665
2852,,0.0016012857384838
2853,,0.0015497750393301
2854,,0.0014989830235687
2855,,0.0014489486454047
2856,,0.0013997081725906
2857,,0.0013512951868615
2858,,0.0013037405926123
2859,,0.0012570726335059
2860,,0.0012113169166762
2861,,0.0011664964441701
2862,,0.0011226316512532
2863,,0.0010797404511886
2864,,0.0010378382860844
2865,,0.0009969381833942
2866,,0.0009570508176473
2867,,0.000918184576979
2868,,0.0008803456340257
2869,,0.0008435380207507
2870,,0.0008077637067667
2871,,0.0007730226807214
2872,,0.0007393130343206
2873,,0.000706631048568
2874,,0.00067497128181
2875,,0.000644326659183
2876,,0.0006146885630747
2877,,0.0005860469242195
2878,,0.000558390313069
2879,,0.0005317060310856
2880,,0.0005059802016329
2881,,0.0004811978601446
2882,,0.0004573430432801
2883,,0.0004343988767865
2884,,0.0004123476618102
2885,,0.0003911709594193
2886,,0.0003708496731166
2887,,0.000351364129144
2888,,0.0003326941543985
2889,,0.0003148191517983
2890,,0.0002977181729582
2891,,0.000281369988052
2892,,0.0002657531527575
2893,,0.0002508460721985
2894,,0.0002366270618152
2895,,0.0002230744051119
2896,,0.0002101664082457
2897,,0.0001978814514373
2898,,0.0001861980371973
2899,,0.0001750948353781
2900,,0.0001645507250716
2901,,0.0001545448333861
2902,,0.0001450565711491
2903,,0.0001360656655893
2904,,0.0001275521900635
2905,,0.0001194965909016
2906,,0.0001118797114503
2907,,0.000104682813404
2908,,9.788759551635652e-05
2909,,9.147620979093318e-05
2910,,8.54312752556158e-05
2911,,7.973588942612251e-05
2912,,7.437363756930242e-05
2913,,6.932859987761145e-05
2914,,6.458535666804419e-05
2915,,6.0128991719464034e-05
2916,,5.5945093862501614e-05
2917,,5.201975693577246e-05
2918,,4.833957822125941e-05
2919,,4.489165547032473e-05
2920,,4.166358262995698e-05
2921,,3.864344437665332e-05
2922,,3.5819809562717404e-05
2923,,3.31817236768668e-05
2924,,3.0718700417809045e-05
2925,,2.8420712476052147e-05
2926,,2.627818161552128e-05
2927,,2.4281968142778223e-05
2928,,2.242335984764011e-05
2929,,2.0694060494955805e-05
2930,,1.908617794314628e-05
2931,,1.7592211960916646e-05
2932,,1.620504180934158e-05
2933,,1.4917913652305564e-05
2934,,1.372442785409918e-05
2935,,1.2618526218814124e-05
2936,,1.159447922212452e-05
2937,,1.0646873282015426e-05
2938,,9.770598111140564e-06
2939,,8.960834189691403e-06
2940,,8.213040393980967e-06
2941,,7.52294181241881e-06
2942,,6.8865177771433955e-06
2943,,6.299990136326442e-06
2944,,5.759811789064817e-06
2945,,5.2626555018225536e-06
2946,,4.805403022601573e-06
2947,,4.385134506385073e-06
2948,,3.999118262942124e-06
2949,,3.6448008357562738e-06
2950,,3.3197974187039014e-06
2951,,3.0218826151158275e-06
2952,,2.7489815420020367e-06
2953,,2.4991612805433935e-06
2954,,2.2706226724057504e-06
2955,,2.061692460017876e-06
2956,,1.8708157677018429e-06
2957,,1.6965489193904723e-06
2958,,1.5375525876662015e-06
2959,,1.3925852679471866e-06
2960,,1.2604970708724664e-06
2961,,1.140223825257298e-06
2962,,1.0307814834107184e-06
2963,,9.3126082012329e-07
2964,,8.408224162435212e-07
2965,,7.586919174324056e-07
2966,,6.841555584576955e-07
2967,,6.165559432101883e-07
2968,,5.552880705194401e-07
2969,,4.997955957936689e-07
2970,,4.495673185127267e-07
2971,,4.041338856505628e-07
2972,,3.6306470119590514e-07
2973,,3.259650320664453e-07
2974,,2.9247330087715813e-07
2975,,2.622585562119376e-07
2976,,2.3501811126408057e-07
2977,,2.1047534194850453e-07
2978,,1.8837763584331325e-07
2979,,1.684944835878892e-07
2980,,1.5061570464602945e-07
2981,,1.3454979963266416e-07
2982,,1.201224216995441e-07
2983,,1.0717495977605265e-07
2984,,9.556322676446577e-08
2985,,8.515624609225703e-08
2986,,7.583513032622608e-08
2987,,6.749204585244714e-08
2988,,6.002925792124613e-08
2989,,5.3358250646461025e-08
2990,,4.739891683199032e-08
2991,,4.2078812775530994e-08
2992,,3.7332473468470115e-08
2993,,3.3100783871768566e-08
2994,,2.9330402199730446e-08
2995,,2.5973231386585107e-08
2996,,2.2985935144409437e-08
2997,,2.032949524502471e-08
2998,,1.7968806872905967e-08
2999,,1.58723091009201e-08
3000,,1.4011647735780512e-08
3001,,1.236136796562328e-08
3002,,1.0898634418175206e-08
3003,,9.602976404748646e-09
3004,,8.456056283007531e-09
3005,,7.4414590202863946e-09
3006,,6.544501179509124e-09
3007,,5.752057681687115e-09
3008,,5.052404822907138e-09
3009,,4.435078139918118e-09
3010,,3.89074382723483e-09
3011,,3.411082510391102e-09
3012,,2.9886842749415715e-09
3013,,2.6169539393303732e-09
3014,,2.290025642152164e-09
3015,,2.0026858909397044e-09
3016,,1.7503042907302447e-09
3017,,1.5287712366057107e-09
3018,,1.334441915457007e-09
3019,,1.1640860186884374e-09
3020,,1.0148426197273748e-09
3021,,8.841797183140277e-10
3022,,7.698579978692801e-10
3023,,6.698983830279755e-10
3024,,5.825530219171963e-10
3025,,5.062793521789897e-10
3026,,4.397169413025147e-10
3027,,3.8166682074298814e-10
3028,,3.3107305975930384e-10
3029,,2.870063490792143e-10
3030,,2.4864938657404283e-10
3031,,2.1528387725354827e-10
3032,,1.8627897822871572e-10
3033,,1.6108103597642014e-10
3034,,1.39204478408909e-10
3035,,1.2022373802541406e-10
3036,,1.0376609491881635e-10
3037,,8.950533973415688e-11
3038,,7.715616692709067e-11
3039,,6.646921794182835e-11
3040,,5.7226702304491467e-11
3041,,4.923853218844769e-11
3042,,4.2338912825461064e-11
3043,,3.6383337277829045e-11
3044,,3.1245939613423866e-11
3045,,2.6817165494666148e-11
3046,,2.300172365574973e-11
3047,,1.9716785747755247e-11
3048,,1.6890405622091323e-11
3049,,1.4460132338965055e-11
3050,,1.2371794065657484e-11
3051,,1.0578432602421798e-11
3052,,9.039370572093639e-12
3053,,7.719395360411616e-12
3054,,6.588045722596689e-12
3055,,5.618988600521717e-12
3056,,4.789475144380393e-12
3057,,4.079866221656767e-12
3058,,3.473218841221142e-12
3059,,2.9549259366824397e-12
3060,,2.512402854379932e-12
3061,,2.134814689934677e-12
3062,,1.812839324175638e-12
3063,,1.538461634492244e-12
3064,,1.3047949101865573e-12
3065,,1.1059259882514484e-12
3066,,9.367810563735833e-13
3067,,7.930094493079578e-13
3068,,6.708830988521693e-13
3069,,5.672095916208245e-13
3070,,4.792570472752649e-13
3071,,4.0468925690393034e-13
3072,,3.4150972052409e-13
3073,,2.8801339743470183e-13
3074,,2.4274513628287266e-13
3075,,2.0446388577575647e-13
3076,,1.7211190425320519e-13
3077,,1.4478828884977774e-13
3078,,1.2172623450554232e-13
3079,,1.0227351121221639e-13
3080,,8.587571600232673e-14
3081,,7.206191553663866e-14
3082,,6.043234680767406e-14
3083,,5.064788841292258e-14
3084,,4.2421053904929945e-14
3085,,3.55082926394653e-14
3086,,2.970341296996243e-14
3087,,2.4831968149904053e-14
3088,,2.0746467407274782e-14
3089,,1.7322293787642632e-14
3090,,1.4454226910625714e-14
3091,,1.2053483086302184e-14
3092,,1.0045197588589658e-14
3093,,8.366284539647791e-15
3094,,6.963619047893797e-15
3095,,5.792494158373394e-15
3096,,4.815311988895098e-15
3097,,4.000474287152738e-15
3098,,3.321442682363372e-15
3099,,2.7559432320325224e-15
3100,,2.285293577867635e-15
3101,,1.8938342091312704e-15
3102,,1.5684480601671265e-15
3103,,1.2981550048788342e-15
3104,,1.0737698094997566e-15
3105,,8.87613813494341e-16
3106,,7.332720678619598e-16
3107,,6.053889058271981e-16
3108,,4.994959833790696e-16
3109,,4.118677326312923e-16
3110,,3.393999421154475e-16
3111,,2.79507834332517e-16
3112,,2.300405688781352e-16
3113,,1.8920957356844534e-16
3114,,1.5552850852923055e-16
3115,,1.2776300972042763e-16
3116,,1.0488864788389846e-16
3117,,8.605578415682858e-17
3118,,7.056021119626354e-17
3119,,5.781864426120856e-17
3120,,4.7348275119353624e-17
3121,,3.8749726999051626e-17
3122,,3.169285460013792e-17
3123,,2.5904922394966776e-17
3124,,2.1160769634975097e-17
3125,,1.727463378838979e-17
3126,,1.40933574072793e-17
3127,,1.1490748215095381e-17
3128,,9.36289984118744e-18
3129,,7.624312226865e-18
3130,,6.204677237323574e-18
3131,,5.046217238210152e-18
3132,,4.101483013752989e-18
3133,,3.3315329889998428e-18
3134,,2.7044287561395444e-18
3135,,2.193992802792739e-18
3136,,1.778783442965957e-18
3137,,1.4412495492284313e-18
3138,,1.167034021760484e-18
3139,,9.444002116107289e-19
3140,,7.63759914341806e-19
3141,,6.172852111566873e-19
3142,,4.985894791574947e-19
3143,,4.0246542252841413e-19
3144,,3.2467007755348577e-19
3145,,2.617484879586728e-19
3146,,2.1088919290570077e-19
3147,,1.6980586803746437e-19
3148,,1.366404520272259e-19
3149,,1.0988391194908747e-19
3150,,8.83114795184402e-20
3151,,7.092975105458012e-20
3152,,5.693350705128406e-20
3153,,4.567048927508719e-20
3154,,3.661268828943202e-20
3155,,2.9332953809528674e-20
3156,,2.3485953943989874e-20
3157,,1.8792685152470707e-20
3158,,1.502787925556889e-20
3159,,1.200977255119288e-20
3160,,9.59179955325028e-21
3161,,7.655853822972051e-21
3162,,6.106823908559474e-21
3163,,4.8681661037923634e-21
3164,,3.878319692049856e-21
3165,,3.087806299825569e-21
3166,,2.4568843778067644e-21
3167,,1.9536538390118586e-21
3168,,1.5525254841427709e-21
3169,,1.2329858331130265e-21
3170,,9.786010150416976e-22
3171,,7.762139856513478e-22
3172,,6.152979830055265e-22
3173,,4.874361621807095e-22
3174,,3.859030635873e-22
3175,,3.053282111554221e-22
3176,,2.4142590418357135e-22
3177,,1.9077832270916217e-22
3178,,1.5066154343338531e-22
3179,,1.189060697676459e-22
3180,,9.3785103741808e-23
3181,,7.392510126928165e-23
3182,,5.823421418477237e-23
3183,,4.5845080232602756e-23
3184,,3.606911455266385e-23
3185,,2.836001468886209e-23
3186,,2.228464130898353e-23
3187,,1.7499799429581078e-23
3188,,1.3733736811962485e-23
3189,,1.0771410969814606e-23
3190,,8.442764944008262e-24
3191,,6.6134035864357816e-24
3192,,5.1771837727832026e-24
3193,,4.0503295669977216e-24
3194,,3.1667615971848856e-24
3195,,2.4743925727235784e-24
3196,,1.9321910381715415e-24
3197,,1.5078555881387916e-24
3198,,1.1759738447928143e-24
3199,,9.165661236134023e-25
3200,,7.139341676516866e-25
