Wavenumber,Aspirin_Raman
400.0,0.00013418505116100473
401.0006253908693,0.00015735727983719953
402.0012507817386,0.00018423570576620496
403.00187617260787,0.00021535999112856316
404.00250156347715,0.00025133936085499465
405.00312695434644,0.0002928601277459674
406.0037523452158,0.0003406938139252325
407.0043777360851,0.00039570588390352665
408.00500312695436,0.0004588650996656587
409.00562851782365,0.0005312535023847191
410.00625390869294,0.0006140770185465742
411.00687929956223,0.0007086766803775487
412.0075046904315,0.0008165404414594426
413.0081300813008,0.0009393155582508348
414.0087554721701,0.0010788214968884126
415.0093808630394,0.0012370633121095893
416.01000625390867,0.0014162454314300707
417.01063164477796,0.0016187857628613697
418.0112570356473,0.0018473300285226273
419.0118824265166,0.0021047662095740652
420.0125078173859,0.0023942389700924802
421.01313320825517,0.002719163908968848
422.01375859912446,0.0030832414698168543
423.01438398999375,0.003490470319453734
424.01500938086303,0.003945159986004091
425.0156347717323,0.004451942528370783
426.0162601626016,0.005015782990038102
427.0168855534709,0.0056419883722790345
428.0175109443402,0.0063362148452203075
429.01813633520953,0.007104472900294987
430.0187617260788,0.007953130134826005
431.0193871169481,0.008888911349300801
432.0200125078174,0.009918895630790587
433.0206378986867,0.011050510092426968
434.021263289556,0.01229151993935132
435.02188868042526,0.013650014536572184
436.02251407129455,0.0151343891641526
437.02313946216384,0.016753322160522204
438.02376485303313,0.018515747175841982
439.0243902439024,0.0204308202845655
440.02501563477176,0.022507881739890153
441.025641025641,0.02475641219285209
442.02626641651034,0.027185983245473902
443.0268918073796,0.02980620226059453
444.0275171982489,0.03262665141069421
445.0281425891182,0.0356568210138781
446.0287679799875,0.038906037276865604
447.0293933708568,0.04238338464179775
448.03001876172607,0.046097623015287165
449.03064415259536,0.05005710024359385
450.03126954346465,0.05426966028618701
451.03189493433393,0.0587425476301812
452.0325203252032,0.0634823085790266
453.03314571607257,0.0684946901390808
454.03377110694186,0.07378453731588545
455.03439649781114,0.07935568971663172
456.03502188868043,0.08521087843484992
457.0356472795497,0.09135162426623525
458.036272670419,0.09777813836908202
459.0368980612883,0.10448922653746913
460.0375234521576,0.11148219829855328
461.0381488430269,0.11875278207561278
462.03877423389616,0.1262950476744717
463.03939962476545,0.13410133735138663
464.0400250156348,0.1421622067043487
465.040650406504,0.1504663765961692
466.0412757973734,0.15900069726608962
467.04190118824266,0.16775012571655093
468.04252657911195,0.1766977173732068
469.04315196998124,0.18582463290933435
470.0437773608505,0.195110161001159
471.0444027517198,0.2045317576390152
472.0450281425891,0.2140651024619391
473.0456535334584,0.22368417241170813
474.0462789243277,0.23336133281832191
475.046904315197,0.24306744583455592
476.04752970606626,0.2527719959348736
477.0481550969356,0.2624432319863067
478.0487804878049,0.2720483251886338
479.0494058786742,0.2815535419714314
480.05003126954347,0.29092443072924823
481.05065666041276,0.3001260210766028
482.05128205128204,0.30912303411477704
483.05190744215133,0.3178801020256619
484.0525328330206,0.32636199514721453
485.0531582238899,0.334533854543286
486.05378361475925,0.3423614279603156
487.0544090056285,0.3498113069670494
488.05503439649783,0.35685116300310354
489.0556597873671,0.3634499800195022
490.0562851782364,0.3695782813806606
491.0569105691057,0.37520834871338304
492.057535959975,0.38031443043481555
493.0581613508443,0.38487293776775644
494.05878674171356,0.3888626261577492
495.05941213258285,0.3922647601408868
496.06003752345214,0.39506325987270596
497.0606629143214,0.39724482771495306
498.0612883051907,0.3987990534859437
499.06191369606006,0.3997184972089103
500.0625390869293,0.399998748437992
501.06316447779864,0.3996384614999342
502.0637898686679,0.3986393662574691
503.0644152595372,0.39700625427391406
504.0650406504065,0.39474694053382353
505.0656660412758,0.3918722011475985
506.0662914321451,0.3883956877348856
507.06691682301437,0.3843338194385599
508.06754221388366,0.37970565376445653
509.06816760475294,0.37453273766838713
510.0687929956223,0.3688389405182438
511.0694183864915,0.3626502707424073
512.0700437773609,0.3559946781338439
513.0706691682301,0.34890184391031925
514.0712945590994,0.34140296073349374
515.0719199499688,0.3335305049624381
516.072545340838,0.3253180034596309
517.0731707317073,0.31679979727990043
518.0737961225766,0.30801080455539703
519.0744215134459,0.29898628484347056
520.0750469043152,0.2897616071306293
521.0756722951845,0.28037202358631363
522.0762976860537,0.2708524510371432
523.0769230769231,0.2612372619879367
524.0775484677923,0.25156008685300896
525.0781738586617,0.2418536288826681
526.0787992495309,0.23214949307878485
527.0794246404002,0.22247803019264334
528.0800500312696,0.21286819669146315
529.0806754221388,0.20334743136989403
530.081300813008,0.19394154907273664
531.0819262038774,0.1846746517879621
532.0825515947467,0.17556905716761276
533.083176985616,0.16664524434097064
534.0838023764853,0.15792181670181554
535.0844277673546,0.14941548118170697
536.0850531582239,0.14114104336575597
537.0856785490932,0.13311141766787937
538.0863039399625,0.125337651659993
539.0869293308317,0.11782896354501166
540.087554721701,0.11059279167722998
541.0881801125704,0.10363485496589264
542.0888055034396,0.09695922294840337
543.089430894309,0.09056839428826864
544.0900562851782,0.08446338243887139
545.0906816760476,0.07864380721659855
546.0913070669168,0.07310799104473377
547.0919324577861,0.06785305866145906
548.0925578486554,0.06287503913008413
549.0931832395247,0.058168969045570285
550.093808630394,0.053728995897147136
551.0944340212633,0.04954848062057923
552.0950594121325,0.04562009845394423
553.0956848030019,0.041935937295962206
554.0963101938712,0.038487592854443975
555.0969355847404,0.03526625996283198
556.0975609756098,0.032262819533687585
557.098186366479,0.02946792070803896
558.0988117573484,0.026872057847560443
559.0994371482176,0.02446564210159878
560.1000625390869,0.022239067362112223
561.1006879299562,0.02018277049594915
562.1013133208255,0.018287285814847894
563.1019387116949,0.016543293808663078
564.1025641025641,0.01494166422618804
565.1031894934333,0.013473493640361446
566.1038148843027,0.012130137680472263
567.104440275172,0.010903238153214898
568.1050656660412,0.009784745307194599
569.1056910569106,0.008766935521924082
570.1063164477798,0.007842424722747038
571.1069418386492,0.007004177837798411
572.1075672295185,0.006245514622459684
573.1081926203877,0.005560112181191332
574.108818011257,0.004942004516600036
575.1094434021263,0.004385579431583461
576.1100687929957,0.003885573102877877
577.1106941838649,0.00343706263379934
578.1113195747342,0.0030354568808910105
579.1119449656035,0.002676485834029971
580.1125703564728,0.0023561888127452634
581.113195747342,0.002070901723476753
582.1138211382114,0.0018172436036380535
583.1144465290806,0.0015921026590000158
584.11507191995,0.0013926219813938216
585.1156973108193,0.001216185114336399
586.1163227016885,0.0010604016151454206
587.1169480925578,0.000923092743654705
588.1175734834271,0.0008022773899359147
589.1181988742965,0.0006961583366243103
590.1188242651657,0.0006031089356467716
591.119449656035,0.0005216602644417207
592.1200750469043,0.0004504888131985172
593.1207004377736,0.00038840474225922133
594.1213258286429,0.00033434073762920845
595.1219512195122,0.00028734148252356075
596.1225766103814,0.00024655375400999056
597.1232020012508,0.00021121714605502225
598.1238273921201,0.00018065541358960413
599.1244527829894,0.0001542684265226134
600.1250781738586,0.00013152471788131014
601.1257035647279,0.00011195460637562626
602.1263289555973,9.514387059546442e-05
603.1269543464665,8.072794968268453e-05
604.1275797373359,6.838664359799974e-05
605.1282051282051,5.783928495494647e-05
606.1288305190744,4.884035374795915e-05
607.1294559099438,4.117550609236204e-05
608.130081300813,3.4657988257030135e-05
609.1307066916822,2.912540774654782e-05
610.1313320825516,2.443683392402684e-05
611.1319574734209,2.0470201608334677e-05
612.1325828642902,1.7119992185115632e-05
613.1332082551595,1.4295167999138045e-05
614.1338336460287,1.1917337110360988e-05
615.1344590368981,9.919126866318433e-06
616.1350844277673,8.24274614195736e-06
617.1357098186367,6.83871750180064e-06
618.1363352095059,5.664761928981317e-06
619.1369606003752,4.684820125330448e-06
620.1375859912446,3.86819570353338e-06
621.1382113821138,3.18880685633419e-06
622.138836772983,2.624534291347843e-06
623.1394621638524,2.1566543578355243e-06
624.1400875547217,1.769347360332892e-06
625.140712945591,1.449272051416315e-06
626.1413383364603,1.1851982216350057e-06
627.1419637273295,9.676901593462546e-07
628.1425891181989,7.888345384046679e-07
629.1432145090681,6.42007009647311e-07
630.1438398999375,5.216724257136138e-07
631.1444652908067,4.232142211973466e-07
632.145090681676,3.427890049808012e-07
633.1457160725454,2.77202902570801e-07
634.1463414634146,2.238066171430096e-07
635.1469668542838,1.8040656262278546e-07
636.1475922451532,1.45189764248606e-07
637.1482176360225,1.1666052533942251e-07
638.1488430268918,9.358712694041936e-08
639.1494684177611,7.495706300372977e-08
640.1500938086303,5.993952093322842e-08
641.1507191994997,4.78539986443902e-08
642.151344590369,3.814410751090359e-08
643.1519699812383,3.035574822604617e-08
644.1525953721075,2.4118966026746162e-08
645.1532207629768,1.9132895034296483e-08
646.1538461538462,1.5153290583813654e-08
647.1544715447154,1.1982225083108876e-08
648.1550969355848,9.459588722333226e-09
649.155722326454,7.456092645163e-09
650.1563477173233,5.867520234018547e-09
651.1569731081926,4.610013058668761e-09
652.1575984990619,3.616212763530446e-09
653.1582238899312,2.832109581109936e-09
654.1588492808005,2.214473008568895e-09
655.1594746716698,1.7287611275925845e-09
656.1601000625391,1.3474226557702888e-09
657.1607254534083,1.0485205861146799e-09
658.1613508442776,8.146186285922955e-10
659.161976235147,6.318819829003703e-10
660.1626016260162,4.893525624837676e-10
661.1632270168855,3.783659277037744e-10
662.1638524077548,2.9208310322854957e-10
663.1644777986241,2.2511534871994797e-10
664.1651031894935,1.732239905112693e-10
665.1657285803627,1.330807472354495e-10
666.166353971232,1.0207671417768535e-10
667.1669793621013,7.817041043913441e-11
668.1676047529706,5.976712456657347e-11
669.1682301438399,4.562328910153252e-11
670.1688555347091,3.47708318071125e-11
671.1694809255785,2.6457440518396733e-11
672.1701063164478,2.009948065840328e-11
673.170731707317,1.5244953465868926e-11
674.1713570981864,1.1544407000633713e-11
675.1719824890556,8.728134204564923e-12
676.172607879925,6.588331766646488e-12
677.1732332707943,4.9651659154733815e-12
678.1738586616635,3.735909348474504e-12
679.1744840525328,2.8064877644199415e-12
680.1751094434021,2.1049134159034642e-12
681.1757348342715,1.5761936683015866e-12
682.1763602251407,1.1783903583521371e-12
683.1769856160099,8.795753336019319e-13
684.1776110068793,6.55482592034419e-13
685.1782363977486,4.877008837222998e-13
686.178861788618,3.6228485748654204e-13
687.1794871794872,2.6868973875885443e-13
688.1801125703564,1.9895563286900962e-13
689.1807379612258,1.4708407626008627e-13
690.1813633520951,1.0856237471131831e-13
691.1819887429643,8.000134182828067e-14
692.1826141338336,5.885989288748928e-14
693.1832395247029,4.3236041304395315e-14
694.1838649155723,3.170856865894558e-14
695.1844903064415,2.3217294643686605e-14
696.1851156973107,1.697269657781448e-14
697.1857410881801,1.238780447178688e-14
698.1863664790494,9.026972032932797e-15
699.1869918699188,6.567409754618692e-15
700.187617260788,4.7703516456049226e-15
701.1882426516572,3.459480941158125e-15
702.1888680425266,2.504815637644764e-15
703.1894934333959,1.8106932379688804e-15
704.1901188242651,1.3068276425980815e-15
705.1907442151344,9.416643278652128e-16
706.1913696060037,6.774518072784095e-16
707.1919949968731,4.865924642402878e-16
708.1926203877423,3.489453664784222e-16
709.1932457786116,2.498361887083441e-16
710.1938711694809,1.785914229835519e-16
711.1944965603502,1.2746063322137005e-16
712.1951219512196,9.082540592420061e-17
713.1957473420888,6.461974417835487e-17
714.196372732958,4.590612981684372e-17
715.1969981238274,3.256599031886606e-17
716.1976235146967,2.3074098885021408e-17
717.198248905566,1.6334447054490824e-17
718.1988742964352,1.1561065145647156e-17
719.1994996873045,8.19165646395712e-18
720.2001250781739,5.8251534420355784e-18
721.2007504690432,4.1766943470719995e-18
722.2013758599124,3.0452793651758403e-18
723.2020012507817,2.2906597977959568e-18
724.202626641651,1.8169666437909086e-18
725.2032520325204,1.5612863939829784e-18
726.2038774233896,1.4859104570896066e-18
727.2045028142588,1.5733709995792875e-18
728.2051282051282,1.8236681477959163e-18
729.2057535959975,2.253320267129255e-18
730.2063789868668,2.8960526079599128e-18
731.207004377736,3.805097644253973e-18
732.2076297686053,5.057227627165577e-18
733.2082551594747,6.758789281574739e-18
734.208880550344,9.0541746996082e-18
735.2095059412133,1.2137354319355998e-17
736.2101313320825,1.6267331874851568e-17
737.2107567229518,2.1788674332597087e-17
738.2113821138212,2.915864273802975e-17
739.2120075046904,3.898292827798487e-17
740.2126328955596,5.206261411985401e-17
741.213258286429,6.945577885255067e-17
742.2138836772983,9.255818404811525e-17
743.2145090681676,1.232088134757865e-16
744.2151344590369,1.6382774020625144e-16
745.2157598499061,2.175959991563616e-16
746.2163852407755,2.886899753707841e-16
747.2170106316448,3.8258645928090316e-16
748.2176360225141,5.064591941256138e-16
749.2182614133833,6.696937331929497e-16
750.2188868042526,8.845550977361112e-16
751.219512195122,1.1670525391525936e-15
752.2201375859912,1.5380582417343996e-15
753.2207629768604,2.0247527883158596e-15
754.2213883677298,2.662490575640241e-15
755.2220137585991,3.497204274884218e-15
756.2226391494685,4.588500352104968e-15
757.2232645403377,6.013639436095821e-15
758.2238899312069,7.872648259278778e-15
759.2245153220763,1.029487689770928e-14
760.2251407129456,1.344739972366645e-14
761.2257661038149,1.754576538755175e-14
762.2263914946841,2.2867735915729633e-14
763.2270168855534,2.97708246883165e-14
764.2276422764228,3.871465640601647e-14
765.228267667292,5.0289440052263095e-14
766.2288930581612,6.52521818103034e-14
767.2295184490306,8.457268563538996e-14
768.2301438398999,1.0949191540882999e-13
769.2307692307693,1.4159594988490593e-13
770.2313946216385,1.8290958152923526e-13
771.2320200125077,2.360146316977728e-13
772.2326454033771,3.0419932521926776e-13
773.2332707942464,3.9164664603251754e-13
774.2338961851157,5.036715541032031e-13
775.2345215759849,6.470193705933573e-13
776.2351469668542,8.302406410280645e-13
777.2357723577236,1.064161496691418e-12
778.2363977485928,1.3624731132592009e-12
779.2370231394622,1.7424695082306895e-12
780.2376485303314,2.225969862708079e-12
781.2382739212007,2.8404700869604383e-12
782.2388993120701,3.620578822619719e-12
783.2395247029393,4.609805910404117e-12
784.2401500938086,5.862787062186921e-12
785.2407754846779,7.44804767684583e-12
786.2414008755472,9.451432173655713e-12
787.2420262664165,1.1980353778710254e-11
788.2426516572857,1.5169054462172347e-11
789.243277048155,1.9185106973860973e-11
790.2439024390244,2.42374422022235e-11
791.2445278298937,3.058624722832873e-11
792.245153220763,3.855515465928616e-11
793.2457786116322,4.8546234722214805e-11
794.2464040025015,6.105841129433638e-11
795.2470293933709,7.671005523480368e-11
796.2476547842401,9.626666745381738e-11
797.2482801751094,1.206747552939164e-10
798.2489055659787,1.5110323513972312e-10
799.249530956848,1.8899396895067237e-10
800.2501563477173,2.361233711472832e-10
801.2507817385865,2.946774149935923e-10
802.2514071294559,3.6734283606563534e-10
803.2520325203252,4.574178883562525e-10
804.2526579111945,5.689466721561098e-10
805.2532833020638,7.068818408859995e-10
806.253908692933,8.7728142846874e-10
807.2545340838024,1.0875466451357187e-09
808.2551594746717,1.3467087973966174e-09
809.2557848655409,1.6657750316111998e-09
810.2564102564102,2.0581444199331315e-09
811.2570356472795,2.5401080482485543e-09
812.2576610381489,3.1314492810134692e-09
813.2582864290181,3.856163328473338e-09
814.2589118198874,4.743318697512666e-09
815.2595372107567,5.828087148420556e-09
816.260162601626,7.152973497768364e-09
817.2607879924954,8.769282106896213e-09
818.2614133833646,1.0738863295275285e-08
819.2620387742338,1.313619035354129e-08
820.2626641651032,1.6050826455752596e-08
821.2632895559725,1.95903507580611e-08
822.2639149468417,2.388382451756545e-08
823.264540337711,2.9085891391511544e-08
824.2651657285803,3.538162143146391e-08
825.2657911194497,4.299222594791838e-08
826.266416510319,5.218179069938463e-08
827.2670419011882,6.326519810353255e-08
828.2676672920575,7.661743576312631e-08
829.2682926829268,9.268451897510453e-08
830.2689180737962,1.1199628952216194e-07
831.2695434646654,1.351813924566332e-07
832.2701688555346,1.629847773530811e-07
833.270794246404,1.9628812126167837e-07
834.2714196372733,2.36133628031297e-07
835.2720450281425,2.837517235439003e-07
836.2726704190118,3.4059323952996385e-07
837.2732958098811,4.08366760905784e-07
838.2739212007505,4.890819039447848e-07
839.2745465916198,5.850993960940934e-07
840.275171982489,6.991889439740893e-07
841.2757973733583,8.345960052230448e-07
842.2764227642276,9.951187236111502e-07
843.277048155097,1.1851964465550183e-06
844.2776735459662,1.4100114211848127e-06
845.2782989368354,1.6756054608759579e-06
846.2789243277048,1.9890135901307856e-06
847.2795497185741,2.3584169133931156e-06
848.2801751094433,2.7933172143380034e-06
849.2808005003127,3.3047360779435513e-06
850.2814258911819,3.905441639758154e-06
851.2820512820513,4.6102064067314545e-06
852.2826766729206,5.436099963217378e-06
853.2833020637898,6.402820775653577e-06
854.2839274546591,7.533071741194501e-06
855.2845528455284,8.852984590309463e-06
856.2851782363978,1.0392598751917316e-05
857.285803627267,1.2186400822636602e-05
858.2864290181362,1.4273931349488768e-05
859.2870544090056,1.670046623785655e-05
860.2876797998749,1.951778073318664e-05
861.2883051907443,2.2785004594862373e-05
862.2889305816135,2.656957778230304e-05
863.2895559724827,3.094831670450173e-05
864.2901813633521,3.600860184195515e-05
865.2908067542214,4.1849698330554026e-05
866.2914321450907,4.858422189586994e-05
867.2920575359599,5.633976333775104e-05
868.2926829268292,6.526068558258407e-05
869.2933083176986,7.551010813609802e-05
870.2939337085678,8.727209457412239e-05
871.294559099437,0.00010075405949177924
872.2951844903064,0.00011618941208139277
873.2958098811757,0.0001338404542126201
874.2964352720451,0.00015400155153009624
875.2970606629143,0.00017700259664778304
876.2976860537835,0.00020321278398727127
877.2983114446529,0.00023304471615978736
878.2989368355222,0.00026695886200739567
879.2995622263915,0.00030546838647510006
880.3001876172607,0.00034914437235778964
881.30081300813,0.0003986214536286169
882.3014383989994,0.00045460387948151847
883.3020637898687,0.0005178720273819248
884.302689180738,0.0005892893822872419
885.3033145716072,0.0006698099977430313
886.3039399624765,0.000760486452751424
887.3045653533459,0.0008624783161157479
888.3051907442151,0.000977061127359487
889.3058161350843,0.0011056359002697377
890.3064415259537,0.001249739151597807
891.307066916823,0.0014110534534368365
892.3076923076923,0.0015914185032648305
893.3083176985615,0.0017928427005708437
894.3089430894308,0.002017515213355892
895.3095684803002,0.002267818511606394
896.3101938711695,0.002546341338069285
897.3108192620388,0.002855892079312725
898.311444652908,0.003199512492141514
899.3120700437773,0.0035804917319625733
900.3126954346467,0.004002380620686321
901.3133208255159,0.004469006082233608
902.3139462163851,0.00498448566373319
903.3145716072545,0.005553242050093638
904.3151969981238,0.006180017468875409
905.3158223889931,0.0068698878713457385
906.3164477798623,0.007628276764353827
907.3170731707316,0.008460968556313274
908.317698561601,0.009374121269230836
909.3183239524703,0.010374278457494206
910.3189493433396,0.011468380163158069
911.3195747342088,0.012663772726893141
912.3202001250781,0.01396821726373787
913.3208255159475,0.015389896603485605
914.3214509068167,0.016937420487122924
915.3220762976861,0.01861982880338794
916.3227016885553,0.020446592643429295
917.3233270794246,0.02242761294691919
918.3239524702939,0.024573216509978738
919.3245778611632,0.026894149124143434
920.3252032520325,0.029401565616479847
921.3258286429018,0.03210701656410219
922.326454033771,0.035022431461851536
923.3270794246404,0.03816009813003004
924.3277048155097,0.04153263815990924
925.328330206379,0.045152978208472035
926.3289555972483,0.04903431697055565
927.3295809881175,0.053190087676370595
928.3302063789869,0.05763391598535226
929.3308317698561,0.06237957317344479
930.3314571607254,0.06744092454030787
931.3320825515947,0.07283187299544071
932.332707942464,0.07856629781787716
933.3333333333333,0.08465798862267838
934.3339587242026,0.09112057460892103
935.3345841150718,0.09796744920788727
936.3352095059412,0.10521169029662787
937.3358348968105,0.11286597619051876
938.3364602876798,0.12094249767869425
939.3370856785491,0.1294528664177781
940.3377110694183,0.13840802005179578
941.3383364602877,0.14781812447907888
942.3389618511569,0.157692473739726
943.3395872420263,0.16803938804940594
944.3402126328955,0.17886611055616577
945.3408380237648,0.19017870344607118
946.3414634146341,0.20198194407007264
947.3420888055034,0.21427922180808803
948.3427141963728,0.22707243642597286
949.343339587242,0.24036189871647215
950.3439649781113,0.254146234245496
951.3445903689806,0.2684222910496749
952.3452157598499,0.2831850521495582
953.3458411507191,0.29842755375424673
954.3464665415885,0.31414081003752936
955.3470919324577,0.3303137453618589
956.3477173233271,0.3469331348147857
957.3483427141963,0.36398355390200404
958.3489681050656,0.3814473382121661
959.349593495935,0.3993045538304548
960.3502188868042,0.4175329792309825
961.3508442776736,0.43610809932202665
962.3514696685428,0.45500311225330575
963.3520950594121,0.4741889495212005
964.3527204502814,0.4936343098261132
965.3533458411507,0.51330570704695
966.35397123202,0.5331675326010497
967.3545966228893,0.553182132354991
968.3552220137585,0.5733098981428315
969.3558474046279,0.5935093738348725
970.3564727954971,0.6137373757824419
971.3570981863664,0.6339491273440371
972.3577235772358,0.65409840707602
973.358348968105,0.6741377100486655
974.3589743589744,0.6940184216264464
975.3595997498436,0.7136910029315812
976.3602251407129,0.7331051870933154
977.3608505315822,0.7522101852731978
978.3614759224515,0.770954901350441
979.3621013133207,0.7892881540520764
980.3627267041901,0.8071589052217423
981.3633520950593,0.8245164928391905
982.3639774859287,0.8413108673315697
983.364602876798,0.8574928296576778
984.3652282676672,0.8730142695990469
985.3658536585366,0.8878284026572638
986.3664790494058,0.9018900039362041
987.3671044402752,0.9151556373813428
988.3677298311444,0.9275838787561007
989.3683552220137,0.9391355307578468
990.368980612883,0.949773828713281
991.3696060037523,0.9594646353447485
992.3702313946216,0.9681766231648706
993.3708567854909,0.9758814431365986
994.3714821763602,0.982553878328451
995.3721075672295,0.9881719813997681
996.3727329580988,0.9927171948671494
997.373358348968,0.9961744532298958
998.3739837398374,0.9985322661680408
999.3746091307066,0.9997827821700472
1000.375234521576,0.9999218320971849
1001.3758599124452,0.9989489523464091
1002.3764853033146,0.9968673874317647
1003.3771106941838,0.9936840719643417
1004.3777360850531,0.9894095921709967
1005.3783614759224,0.9840581272508687
1006.3789868667917,0.9776473710245157
1007.379612257661,0.9701984344818064
1008.3802376485303,0.961735729979944
1009.3808630393996,0.9522868379808282
1010.3814884302689,0.9418823573460327
1011.3821138211382,0.9305557403266864
1012.3827392120074,0.9183431134935763
1013.3833646028768,0.9052830859486066
1014.383989993746,0.8914165462418323
1015.3846153846154,0.8767864494876241
1016.3852407754846,0.8614375962289529
1017.3858661663539,0.8454164046395718
1018.3864915572233,0.8287706776802306
1019.3871169480925,0.8115493668365448
1020.3877423389619,0.7938023340632583
1021.3883677298311,0.7755801135424485
1022.3889931207004,0.7569336748321785
1023.3896185115697,0.7379141889380084
1024.3902439024391,0.718572798782967
1025.3908692933082,0.6989603954833978
1026.3914946841776,0.6791274017588551
1027.392120075047,0.6591235637157913
1028.392745465916,0.6389977521472733
1029.3933708567856,0.6187977743865696
1030.3939962476547,0.598570197641784
1031.394621638524,0.5783601846229356
1032.3952470293934,0.5582113421542033
1033.3958724202625,0.5381655833422886
1034.396497811132,0.5182630037497311
1035.3971232020012,0.4985417718998371
1036.3977485928704,0.47903803431905073
1037.39837398374,0.45978583520455235
1038.398999374609,0.4408170506903726
1039.3996247654784,0.42216133757514784
1040.4002501563477,0.40384609627063267
1041.4008755472169,0.38589644763160563
1042.4015009380864,0.36833522323699425
1043.4021263289555,0.35118296860858883
1044.402751719825,0.3344579587781806
1045.4033771106942,0.3181762255474827
1046.4040025015634,0.3023515957267689
1047.4046278924327,0.28699573958925495
1048.405253283302,0.2721182287380546
1049.4058786741712,0.2577266025512523
1050.4065040650407,0.24382644234834053
1051.4071294559099,0.23042145240747647
1052.4077548467792,0.21751354695731434
1053.4083802376485,0.20510294226982126
1054.4090056285177,0.19318825299002085
1055.4096310193872,0.18176659185555627
1056.4102564102564,0.17083367198210833
1057.4108818011257,0.16038391091953946
1058.411507191995,0.15041053571802235
1059.4121325828642,0.1409056882818821
1060.4127579737335,0.13186053033162917
1061.4133833646029,0.12326534734046846
1062.414008755472,0.11510965085994566
1063.4146341463415,0.10738227869983503
1064.4152595372107,0.100071492479085
1065.41588492808,0.09316507211699748
1066.4165103189493,0.08665040688658943
1067.4171357098185,0.08051458270419365
1068.417761100688,0.07474446538086735
1069.4183864915572,0.06932677961128048
1070.4190118824265,0.06424818352409634
1071.4196372732958,0.05949533866432787
1072.420262664165,0.05505497532200816
1073.4208880550343,0.050913953162926025
1074.4215134459037,0.047059317155641184
1075.422138836773,0.04347834882442247
1076.4227642276423,0.040158612890082955
1077.4233896185115,0.03708799938972426
1078.4240150093808,0.034254761392183676
1079.4246404002502,0.031647548448478925
1080.4252657911193,0.029255435935755178
1081.4258911819888,0.02706795046929762
1082.426516572858,0.02507509157010595
1083.4271419637273,0.02326734978544731
1084.4277673545967,0.02163572146694913
1085.4283927454658,0.020171720415158436
1086.4290181363351,0.018867386601417565
1087.4296435272045,0.01771529217746688
1088.4302689180738,0.016708544980611376
1089.4308943089432,0.015840789737806064
1090.4315196998123,0.015106207165792576
1091.4321450906816,0.014499511156691753
1092.432770481551,0.014015944229426276
1093.43339587242,0.013651271417206973
1094.4340212632897,0.013401772750287538
1095.4346466541588,0.013264234481449502
1096.4352720450281,0.013235939189416065
1097.4358974358975,0.013314654882795565
1098.4365228267666,0.013498623214372707
1099.4371482176361,0.013786546902774663
1100.4377736085053,0.01417757644587039
1101.4383989993746,0.014671296197864097
1102.439024390244,0.015267709870023839
1103.439649781113,0.015967225503476748
1104.4402751719824,0.01677063995158346
1105.4409005628518,0.017679122899173724
1106.4415259537209,0.01869420043646684
1107.4421513445905,0.019817738196863954
1108.4427767354596,0.021051924060049673
1109.443402126329,0.022399250415041604
1110.4440275171983,0.023862495971958216
1111.4446529080674,0.025444707106447684
1112.445278298937,0.02714917871686774
1113.445903689806,0.028979434571487078
1114.4465290806754,0.03093920712120398
1115.4471544715448,0.03303241675246552
1116.4477798624139,0.03526315045532821
1117.4484052532832,0.037635639882784795
1118.4490306441526,0.04015423877964358
1119.4496560350217,0.042823399762342125
1120.4502814258913,0.04564765043503058
1121.4509068167604,0.04863156883205597
1122.4515322076297,0.051779758182607875
1123.452157598499,0.055096820999555304
1124.4527829893682,0.0585873325015638
1125.4534083802378,0.06225581338515896
1126.4540337711069,0.06610670197155047
1127.4546591619762,0.07014432576170095
1128.4552845528456,0.07437287244206292
1129.4559099437147,0.0787963603928108
1130.456535334584,0.08341860875990581
1131.4571607254534,0.08824320716203356
1132.4577861163225,0.09327348511323892
1133.458411507192,0.098512481251773
1134.4590368980612,0.10396291247524508
1135.4596622889305,0.109627143091603
1136.4602876797999,0.1155071541044109
1137.460913070669,0.1216045127596315
1138.4615384615386,0.12792034248918926
1139.4621638524077,0.1344552933941114
1140.462789243277,0.14120951341696245
1141.4634146341464,0.14818262035921814
1142.4640400250155,0.15537367490454293
1143.4646654158848,0.16278115481310126
1144.4652908067542,0.1704029304552588
1145.4659161976235,0.17823624185519765
1146.4665415884929,0.18627767741587298
1147.467166979362,0.19452315449651478
1148.4677923702313,0.20296790201234496
1149.4684177611007,0.21160644522330604
1150.4690431519698,0.2204325928744698
1151.4696685428394,0.22943942684519195
1152.4702939337085,0.23861929445712554
1153.4709193245778,0.24796380358300482
1154.4715447154472,0.2574638206882368
1155.4721701063163,0.2671094719264912
1156.4727954971856,0.27689014739800416
1157.473420888055,0.2867945086657064
1158.4740462789243,0.29681049960950684
1159.4746716697937,0.3069253606830082
1160.4752970606628,0.3171256466199343
1161.4759224515321,0.3273972476195396
1162.4765478424015,0.3377254140213521
1163.4771732332706,0.3480947844600586
1164.4777986241402,0.3584894174710332
1165.4784240150093,0.3688928264962535
1166.4790494058786,0.37928801821940217
1167.479674796748,0.38965753413745086
1168.480300187617,0.3999834952549169
1169.4809255784867,0.41024764976564004
1170.4815509693558,0.42043142356599805
1171.4821763602251,0.43051597342312764
1172.4828017510945,0.44048224260163055
1173.4834271419636,0.45031101873336377
1174.484052532833,0.45998299369662193
1175.4846779237023,0.46947882525398954
1176.4853033145714,0.4787792001823911
1177.485928705441,0.48786489861440774
1178.48655409631,0.49671685929704873
1179.4871794871794,0.5053162454630872
1180.4878048780488,0.5136445110004664
1181.488430268918,0.5216834665979502
1182.4890556597875,0.5294153455395298
1183.4896810506566,0.5368228688166264
1184.490306441526,0.5438893092258558
1185.4909318323953,0.5505985541207653
1186.4915572232644,0.5569351664890929
1187.4921826141338,0.5628844440321956
1188.492808005003,0.5684324759306892
1189.4934333958722,0.5735661969899278
1190.4940587867418,0.5782734388705772
1191.494684177611,0.5825429781232646
1192.4953095684803,0.5863645807620448
1193.4959349593496,0.5897290431289237
1194.4965603502187,0.5926282288211192
1195.4971857410883,0.5950551014736828
1196.4978111319574,0.5970037532125986
1197.4984365228268,0.5984694286173461
1198.499061913696,0.5994485440568499
1199.4996873045652,0.5999387022887931
1200.5003126954346,0.5999387022390303
1201.500938086304,0.5994485439052597
1202.501563477173,0.5984694283569273
1203.5021888680426,0.5970037528313588
1204.5028142589117,0.5950551009541435
1205.503439649781,0.5926282281395957
1206.5040650406504,0.5897290422545518
1207.5046904315195,0.5863645796555315
1208.505315822389,0.5825429767352966
1209.5059412132582,0.5782734371398565
1210.5065666041276,0.5735661948407429
1211.507191994997,0.5684324732699474
1212.507817385866,0.5628844407458241
1213.5084427767354,0.5569351624376616
1214.5090681676047,0.5505985491342112
1215.509693558474,0.5438893030971244
1216.5103189493434,0.5368228612940136
1217.5109443402125,0.529415336317494
1218.5115697310819,0.5216834553060965
1219.5121951219512,0.5136444971903507
1220.5128205128203,0.5053162285924626
1221.51344590369,0.4967168387110305
1222.514071294559,0.48786487352304786
1223.5146966854284,0.47877916963395917
1224.5153220762977,0.46947878810320187
1225.5159474671668,0.4599829485669364
1226.5165728580362,0.45031096397223114
1227.5171982489055,0.44048217622751723
1228.5178236397749,0.43051589306284677
1229.5184490306442,0.42043132638066366
1230.5190744215133,0.41024753236331657
1231.5196998123827,0.3999833535876949
1232.520325203252,0.38965736338031826
1233.5209505941211,0.37928781262792016
1234.5215759849907,0.36889257923947405
1235.5222013758598,0.35848912043569375
1236.5228267667292,0.3480944280213448
1237.5234521575985,0.3377249867749065
1238.5240775484676,0.32739673606860104
1239.5247029393372,0.31712503481051235
1240.5253283302063,0.306924629779109
1241.5259537210757,0.2968096273991444
1242.526579111945,0.2867934689872343
1243.5272045028141,0.27688890947479244
1244.5278298936835,0.2671079995963313
1245.5284552845528,0.2574620715120436
1246.529080675422,0.24796172781529077
1247.5297060662915,0.23861683385839666
1248.5303314571606,0.22943651331391796
1249.53095684803,0.22042914687330759
1250.5315822388993,0.21160237397114307
1251.5322076297684,0.20296309741019383
1252.532833020638,0.19451749075130795
1253.5334584115071,0.18627100832199958
1254.5340838023765,0.17822839768875468
1255.5347091932458,0.17039371443084
1256.535334584115,0.16277033904716667
1257.5359599749843,0.1553609958231362
1258.5365853658536,0.14816777348096297
1259.5372107567227,0.14119214743477992
1260.5378361475923,0.13443500347097645
1261.5384615384614,0.1278966626745089
1262.5390869293308,0.12157690742325217
1263.5397123202001,0.11547500827507721
1264.5403377110692,0.10958975157568535
1265.5409631019388,0.103919467619718
1266.541588492808,0.09846205920291136
1267.5422138836773,0.09321503040902016
1268.5428392745466,0.08817551548206079
1269.5434646654157,0.0833403076416267
1270.544090056285,0.07870588770693485
1271.5447154471544,0.07426845240352152
1272.5453408380235,0.07002394223510564
1273.5459662288931,0.06596806881206585
1274.5465916197622,0.06209634153707644
1275.5472170106316,0.05840409355760854
1276.547842401501,0.054886506904346224
1277.54846779237,0.05153863674371983
1278.5490931832396,0.04835543468196034
1279.5497185741087,0.04533177106707651
1280.550343964978,0.04246245624391707
1281.5509693558474,0.039742260726093194
1282.5515947467165,0.0371659342567205
1283.552220137586,0.034728223737890654
1284.5528455284552,0.032423890016313045
1285.5534709193246,0.030247723519684667
1286.554096310194,0.028194558745073622
1287.554721701063,0.026259287606847887
1288.5553470919324,0.02443687165747736
1289.5559724828017,0.022722353199869663
1290.5565978736709,0.02111086531472869
1291.5572232645404,0.019597640830801722
1292.5578486554095,0.01817802026976685
1293.558474046279,0.01684745880090708
1294.5590994371482,0.015601532243697536
1295.5597248280174,0.014435942158900449
1296.5603502188867,0.013346520070844041
1297.560975609756,0.012329230865199468
1298.5616010006254,0.01138017540780745
1299.5622263914947,0.010495592430977694
1300.5628517823639,0.009671859734186652
1301.5634771732332,0.008905494746273333
1302.5641025641025,0.008193154496100731
1303.5647279549717,0.0075316350382255174
1304.5653533458412,0.006917870379444762
1305.5659787367103,0.0063489309511769836
1306.5666041275797,0.0058220216715059525
1307.567229518449,0.005334479639423078
1308.5678549093182,0.0048837715023266285
1309.5684803001877,0.004467490536242273
1310.5691056910568,0.0040833534765123474
1311.5697310819262,0.003729197134888239
1312.5703564727955,0.003402974837088549
1313.5709818636647,0.0031027527129444247
1314.571607254534,0.002826705869291452
1315.5722326454033,0.0025731144737811107
1316.5728580362725,0.00234035977579579
1317.573483427142,0.002126920088677786
1318.5741088180112,0.0019313667555318154
1319.5747342088805,0.0017523601189433076
1320.5753595997498,0.0015886455130908021
1321.575984990619,0.0014390492949132824
1322.5766103814885,0.0013024749292458134
1323.5772357723577,0.0011778991411554507
1324.577861163227,0.0010643681471015258
1325.5784865540963,0.0009609939750198227
1326.5791119449655,0.0008669508819820861
1327.5797373358348,0.0007814718767232193
1328.5803627267042,0.0007038453530530159
1329.5809881175733,0.0006334118389801505
1330.5816135084428,0.0005695608652744133
1331.582238899312,0.0005117279561763521
1332.5828642901813,0.00045939174403001736
1333.5834896810507,0.00041207120876547536
1334.5841150719198,0.00036932304238600667
1335.5847404627893,0.000330739137922549
1336.5853658536585,0.0002959442016988158
1337.5859912445278,0.0002645934872019756
1338.5866166353971,0.0002363706483738734
1339.5872420262663,0.00021098570972003162
1340.5878674171356,0.00018817315027714753
1341.588492808005,0.00016769009817878074
1342.589118198874,0.0001493146323101323
1343.5897435897436,0.00013284418734272384
1344.5903689806128,0.00011809405828406698
1345.590994371482,0.00010489600056234716
1346.5916197623515,9.309692158877546e-05
1347.5922451532206,8.255765969586617e-05
1348.5928705440901,7.31518463362513e-05
1349.5934959349593,6.476484743972913e-05
1350.5941213258286,5.729277986309926e-05
1351.594746716698,5.064159892543067e-05
1352.595372107567,4.472625309727143e-05
1353.5959974984364,3.946990200404636e-05
1354.5966228893058,3.48031940086432e-05
1355.597248280175,3.0663599753858875e-05
1356.5978736710445,2.6994798170006064e-05
1357.5984990619136,2.374611158451966e-05
1358.599124452783,2.087198670725958e-05
1359.5997498436523,1.8331518405798037e-05
1360.6003752345214,1.6088013327881526e-05
1361.601000625391,1.4108590572303222e-05
1362.60162601626,1.236381675345641e-05
1363.6022514071294,1.0827372947897235e-05
1364.6028767979988,9.475751152588024e-06
1365.6035021888679,8.287978023257391e-06
1366.6041275797375,7.245363797048226e-06
1367.6047529706066,6.331274435735008e-06
1368.605378361476,5.5309251538961566e-06
1369.6060037523453,4.831193620249966e-06
1370.6066291432144,4.2204512395890855e-06
1371.6072545340837,3.6884110372880503e-06
1372.607879924953,3.225990778057694e-06
1373.6085053158222,2.825190055450494e-06
1374.6091307066918,2.4789801885946824e-06
1375.6097560975609,2.181205857790908e-06
1376.6103814884302,1.9264975010331163e-06
1377.6110068792996,1.7101935793559585e-06
1378.6116322701687,1.528271900289088e-06
1379.6122576610383,1.377289265820194e-06
1380.6128830519074,1.2543287843136252e-06
1381.6135084427767,1.1569542550205978e-06
1382.614133833646,1.0831710993861921e-06
1383.6147592245152,1.0313933755352384e-06
1384.6153846153845,1.0004164713649646e-06
1385.6160100062539,9.893951278322556e-07
1386.616635397123,9.97826497559147e-07
1387.6172607879926,1.0255379950515007e-06
1388.6178861788617,1.0726797438910486e-06
1389.618511569731,1.1397214734808781e-06
1390.6191369606004,1.2274537635535443e-06
1391.6197623514695,1.3369935789444672e-06
1392.620387742339,1.4697940803379918e-06
1393.6210131332082,1.6276587390532968e-06
1394.6216385240775,1.8127598256928114e-06
1395.6222639149469,2.0276613838507936e-06
1396.622889305816,2.2753468413088553e-06
1397.6235146966853,2.5592514524340174e-06
1398.6241400875547,2.8832998070579297e-06
1399.6247654784238,3.2519486831519563e-06
1400.6253908692934,3.670235563308172e-06
1401.6260162601625,4.143833178571535e-06
1402.6266416510318,4.679110487722403e-06
1403.6272670419012,5.283200545814503e-06
1404.6278924327703,5.964075762812558e-06
1405.6285178236399,6.730631101643336e-06
1406.629143214509,7.592775815013312e-06
1407.6297686053783,8.561534372063949e-06
1408.6303939962477,9.649157279385935e-06
1409.6310193871168,1.0869242556219986e-05
1410.6316447779861,1.2236868680830943e-05
1411.6322701688555,1.3768739884119383e-05
1412.6328955597246,1.5483344727535902e-05
1413.6335209505942,1.7401128965257285e-05
1414.6341463414633,1.9544683755337005e-05
1415.6347717323326,2.1938950351128805e-05
1416.635397123202,2.4611442472498462e-05
1417.636022514071,2.759248762621276e-05
1418.6366479049407,3.091548871611241e-05
1419.6372732958098,3.461720735612745e-05
1420.6378986866791,3.873807037266629e-05
1421.6385240775485,4.33225010569856e-05
1422.6391494684176,4.8419276802732535e-05
1423.639774859287,5.4081914838353204e-05
1424.6404002501563,6.036908783820571e-05
1425.6410256410256,6.734507126954696e-05
1426.641651031895,7.508022440444469e-05
1427.642276422764,8.365150699568461e-05
1428.6429018136334,9.314303368317147e-05
1429.6435272045028,0.00010364666826148344
1430.6441525953721,0.00011526265999950235
1431.6447779862413,0.00012810032425840953
1432.6454033771106,0.00014227876970416485
1433.64602876798,0.00015792767445373075
1434.6466541588493,0.00017518811353004873
1435.6472795497184,0.0001942134400277189
1436.6479049405878,0.00021517022240876
1437.648530331457,0.0002382392403541468
1438.6491557223264,0.00026361654159133557
1439.6497811131958,0.00029151456209876433
1440.650406504065,0.00032216331205462784
1441.6510318949342,0.00035581162984736647
1442.6516572858036,0.00039272850639776314
1443.652282676673,0.0004332044819563865
1444.652908067542,0.0004775531174330162
1445.6535334584114,0.0005261125421860579
1446.6541588492807,0.0005792470800473425
1447.65478424015,0.0006373489551806822
1448.6554096310194,0.0007008400791682814
1449.6560350218886,0.000770173920487287
1450.656660412758,0.0008458374572773023
1451.6572858036272,0.0009283532140068932
1452.6579111944966,0.0010182813823228739
1453.6585365853657,0.0011162220260072095
1454.659161976235,0.0012228173695736585
1455.6597873671044,0.001338754169606608
1456.6604127579737,0.0014647661674794215
1457.6610381488429,0.0016016366215852356
1458.6616635397122,0.0017502009166719221
1459.6622889305816,0.0019113492472915125
1460.662914321451,0.002086029371755873
1461.6635397123202,0.0022752494323307216
1462.6641651031894,0.00248008083670335
1463.6647904940587,0.0027016611950239156
1464.665415884928,0.002941197306046327
1465.6660412757974,0.003199968185087019
1466.6666666666665,0.003479328125674344
1467.6672920575359,0.003780709785885697
1468.6679174484052,0.0041056272894601994
1469.6685428392746,0.00445567933084122
1470.6691682301437,0.0048325522723400025
1471.669793621013,0.005238023220630955
1472.6704190118824,0.00567396306878696
1473.6710444027517,0.006142339489052443
1474.671669793621,0.0066452198605270055
1475.6722951844902,0.0071847741149086266
1476.6729205753595,0.0077632774824228775
1477.6735459662289,0.008383113119047821
1478.6741713570982,0.009046774595149461
1479.6747967479673,0.009756868224661758
1480.6754221388367,0.010516115213002095
1481.676047529706,0.011327353600999974
1482.6766729205754,0.012193539981259908
1483.6772983114447,0.013117750962565703
1484.6779237023138,0.014103184357193014
1485.6785490931832,0.015153160065325716
1486.6791744840525,0.016271120630180103
1487.6797998749219,0.017460631436951538
1488.680425265791,0.018725380528297676
1489.6810506566603,0.02006917800879705
1490.6816760475297,0.021495955010655092
1491.682301438399,0.023009762192912866
1492.6829268292681,0.024614767746517843
1493.6835522201375,0.026315254877890597
1494.6841776110068,0.028115618744038274
1495.6848030018762,0.030020362812874603
1496.6854283927455,0.03203409462316761
1497.6860537836146,0.034161520919502676
1498.686679174484,0.036407442138802516
1499.6873045653533,0.038776746226287045
1500.6879299562227,0.04127440176033024
1501.6885553470918,0.04390545036741991
1502.6891807379611,0.04667499841041992
1503.6898061288305,0.04958820793551302
1504.6904315196998,0.052650286865636116
1505.691056910569,0.05586647843082624
1506.6916823014383,0.05924204982875574
1507.6923076923076,0.06278228011177317
1508.692933083177,0.06649244730005208
1509.6935584740463,0.07037781472389244
1510.6941838649154,0.07444361660188926
1511.6948092557848,0.07869504286552627
1512.6954346466541,0.08313722324474945
1513.6960600375235,0.08777521063327987
1514.6966854283926,0.09261396375671137
1515.697310819262,0.09765832917091195
1516.6979362101313,0.10291302262277284
1517.6985616010006,0.10838260981003574
1518.69918699187,0.11407148658160056
1519.699812382739,0.11998385862449525
1520.7004377736084,0.12612372068846597
1521.7010631644778,0.13249483540388393
1522.7016885553471,0.13910071175344635
1523.7023139462162,0.14594458326276336
1524.7029393370856,0.15302938597953553
1525.703564727955,0.16035773631542713
1526.7041901188243,0.16793190882908185
1527.7048155096934,0.17575381403276827
1528.7054409005627,0.18382497630905636
1529.706066291432,0.19214651202749322
1530.7066916823014,0.20071910795463285
1531.7073170731708,0.20954300005371557
1532.70794246404,0.2186179527729716
1533.7085678549092,0.22794323892378635
1534.7091932457786,0.23751762025176737
1535.709818636648,0.24733932880521842
1536.710444027517,0.257406049206381
1537.7110694183864,0.26771490193128317
1538.7116948092557,0.2782624277038772
1539.712320200125,0.2890445731095907
1540.7129455909942,0.3000566775321242
1541.7135709818635,0.3112934615156202
1542.7141963727329,0.32274901665187916
1543.7148217636022,0.3344167970894217
1544.7154471544716,0.34628961275752734
1545.7160725453407,0.3583596243942419
1546.71669793621,0.37061834046255276
1547.7173233270794,0.38305661603348196
1548.7179487179487,0.3956646537089494
1549.7185741088178,0.40843200665059476
1550.7191994996872,0.42134758377369436
1551.7198248905565,0.4343996571575574
1552.7204502814259,0.44757587171570934
1553.7210756722952,0.4608632571604001
1554.7217010631643,0.47424824228691753
1555.7223264540337,0.4877166715936554
1556.722951844903,0.5012538242439325
1557.7235772357724,0.5148444353654359
1558.7242026266415,0.5284727196725599
1559.7248280175108,0.5421223973862729
1560.7254534083802,0.555776722415167
1561.7260787992495,0.5694185127504597
1562.7267041901187,0.5830301830165485
1563.727329580988,0.5965937791077616
1564.7279549718573,0.6100910148309007
1565.7285803627267,0.623503310462441
1566.729205753596,0.636811833118525
1567.7298311444652,0.6499975388255818
1568.7304565353345,0.663041216169381
1569.7310819262038,0.675923531390636
1570.7317073170732,0.6886250747862089
1571.7323327079423,0.7011264082662172
1572.7329580988117,0.7134081139093575
1573.733583489681,0.7254508433512622
1574.7342088805503,0.7372353678340735
1575.7348342714195,0.7487426287393375
1576.7354596622888,0.7599537884212021
1577.7360850531581,0.7708502811524781
1578.7367104440275,0.7814138639927303
1579.7373358348968,0.7916266673849032
1580.737961225766,0.8014712452854013
1581.7385866166353,0.8109306246318598
1582.7392120075046,0.8199883539531024
1583.739837398374,0.8286285509271386
1584.740462789243,0.8368359486952621
1585.7410881801125,0.8445959407436382
1586.7417135709818,0.851894624167971
1587.7423389618511,0.8587188411421435
1588.7429643527205,0.8650562184178321
1589.7435897435896,0.870895204689252
1590.744215134459,0.8762251056651802
1591.7448405253283,0.8810361166992455
1592.7454659161976,0.8853193528391855
1593.7460913070668,0.8890668761661676
1594.746716697936,0.892271720306449
1595.7473420888055,0.8949279120094243
1596.7479674796748,0.8970304896985302
1597.748592870544,0.8985755189143507
1598.7492182614133,0.8995601045826555
1599.7498436522826,0.8999824000538174
1600.750469043152,0.8998416128741146
1601.7510944340213,0.899138007263663
1602.7517198248904,0.897872903290138
1603.7523452157598,0.8960486727418977
1604.752970606629,0.8936687317185731
1605.7535959974985,0.890737529971518
1606.7542213883676,0.887260537040678
1607.754846779237,0.8832442252483292
1608.7554721701063,0.8786960496237077
1609.7560975609756,0.8736244248456714
1610.7567229518447,0.8680386993032168
1611.757348342714,0.8619491263857577
1612.7579737335834,0.8553668331265771
1613.7585991244528,0.8483037863336264
1614.759224515322,0.8407727563519465
1615.7598499061912,0.8327872786112351
1616.7604752970606,0.824361613120518
1617.76110068793,0.8155107020794742
1618.7617260787993,0.8062501257825572
1619.7623514696684,0.7965960569978215
1620.7629768605377,0.7865652140070616
1621.763602251407,0.77617481249769
1622.7642276422764,0.7654425164994864
1623.7648530331458,0.7543863885612007
1624.7654784240149,0.7430248393627484
1625.7661038148842,0.7313765769585399
1626.7667292057536,0.7194605558463736
1627.767354596623,0.7072959260541295
1628.767979987492,0.694901982433559
1629.7686053783614,0.6822981143464666
1630.7692307692307,0.6695037559238824
1631.7698561601,0.656538337073129
1632.7704815509692,0.6434212354014192
1633.7711069418385,0.6301717292174663
1634.7717323327079,0.616808951764917
1635.7723577235772,0.6033518468329423
1636.7729831144466,0.5898191258805205
1637.7736085053157,0.5762292268014731
1638.774233896185,0.5626002744474776
1639.7748592870544,0.5489500430161435
1640.7754846779237,0.5352959204006232
1641.7761100687928,0.5216548745866074
1642.7767354596622,0.5080434221715528
1643.7773608505315,0.4944775990700698
1644.7779862414009,0.48097293345822567
1645.77861163227,0.46754442099859894
1646.7792370231393,0.45420650237687776
1647.7798624140087,0.44097304317007113
1648.780487804878,0.4278573160556727
1649.7811131957474,0.41487198536085923
1650.7817385866165,0.4020290939406771
1651.7823639774858,0.3893400523644511
1652.7829893683552,0.3768156303803857
1653.7836147592245,0.36446595061932247
1654.7842401500936,0.3523004844903004
1655.784865540963,0.3403280502125513
1656.7854909318323,0.32855681292123795
1657.7861163227017,0.31699428677729435
1658.786741713571,0.30564733900554153
1659.7873671044401,0.2945221957795009
1660.7879924953095,0.28362444986623636
1661.7886178861788,0.2729590699401119
1662.7892432770482,0.2625304114703793
1663.7898686679173,0.25234222908432974
1664.7904940587866,0.24239769030499903
1665.791119449656,0.2326993905604074
1666.7917448405253,0.2232493693597424
1667.7923702313944,0.2140491275310538
1668.7929956222638,0.20509964541460193
1669.7936210131331,0.19640140190622504
1670.7942464040025,0.1879543942456945
1671.7948717948718,0.17975815844626433
1672.795497185741,0.17181179026320115
1673.7961225766103,0.16411396660113894
1674.7967479674796,0.15666296726259618
1675.797373358349,0.1494566969427549
1676.797998749218,0.14249270737883515
1677.7986241400874,0.1357682195658211
1678.7992495309568,0.12928014595408707
1679.7998749218261,0.12302511254840261
1680.8005003126955,0.11699948083204553
1681.8011257035646,0.11119936944408772
1682.801751094434,0.10562067554243511
1683.8023764853033,0.10025909578984633
1684.8030018761726,0.09511014690481748
1685.8036272670417,0.09016918572401451
1686.804252657911,0.08543142872767698
1687.8048780487804,0.08089197098421726
1688.8055034396498,0.07654580447493572
1689.806128830519,0.07238783576449535
1690.8067542213882,0.06841290298737122
1691.8073796122576,0.06461579212502136
1692.808005003127,0.06099125255287675
1693.8086303939963,0.057534011840528525
1694.8092557848654,0.054238789792568104
1695.8098811757347,0.05110031172146583
1696.810506566604,0.04811332094764048
1697.8111319574734,0.045272590525407726
1698.8117573483426,0.04257293419688633
1699.812382739212,0.04000921657908198
1700.8130081300812,0.03757636259233543
1701.8136335209506,0.03526936614103601
1702.8142589118197,0.03308329806004364
1703.814884302689,0.031013313342549455
1704.8155096935584,0.02905465766720615
1705.8161350844277,0.02720267324421435
1706.816760475297,0.025452804001729515
1707.8173858661662,0.02380060013539713
1708.8180112570356,0.022241722045076715
1709.818636647905,0.020771943683877706
1710.8192620387742,0.019387155345482746
1711.8198874296434,0.018083365916431518
1712.8205128205127,0.016856704620538565
1713.821138211382,0.01570342228297229
1714.8217636022514,0.014619892141700872
1715.8223889931207,0.013602610234063521
1716.8230143839899,0.012648195386125218
1717.8236397748592,0.011753388832252026
1718.8242651657285,0.010915053492009436
1719.824890556598,0.010130172931032863
1720.825515947467,0.009395850031983951
1721.8261413383364,0.008709305401069595
1722.8267667292057,0.008067875534897401
1723.827392120075,0.007469010771657648
1724.8280175109442,0.006910273049791902
1725.8286429018135,0.006389333496416909
1726.8292682926829,0.0059039698668474526
1727.8298936835522,0.00545206385559471
1728.8305190744215,0.0050315982982324136
1729.8311444652907,0.004640654282512896
1730.83176985616,0.004277408186096183
1731.8323952470294,0.00394012865723201
1732.8330206378987,0.0036271735537071405
1733.8336460287678,0.003336986854355206
1734.8342714196372,0.0030680955564164644
1735.8348968105065,0.00281910657104509
1736.8355222013759,0.002588703628287104
1737.836147592245,0.0023756442019057466
1738.8367729831143,0.002178756463507226
1739.8373983739837,0.001996936274528749
1740.838023764853,0.0018291442237880974
1741.8386491557224,0.001674402717469062
1742.8392745465915,0.001531793127624645
1743.8398999374608,0.0014004530045257258
1744.8405253283302,0.0012795733574669762
1745.8411507191995,0.0011683960079626157
1746.8417761100686,0.0010662110186266671
1747.842401500938,0.0009723542004313954
1748.8430268918073,0.0008862047004771154
1749.8436522826767,0.0008071826718830508
1750.844277673546,0.000734747026925072
1751.8449030644151,0.0006683932740982247
1752.8455284552845,0.0006076514393710602
1753.8461538461538,0.0005520840715233565
1754.8467792370232,0.0005012843311168887
1755.8474046278923,0.00045487416234095575
1756.8480300187616,0.00041250254669715594
1757.848655409631,0.00037384383724164174
1758.8492808005003,0.00033859617188490484
1759.8499061913694,0.0003064799640590319
1760.8505315822388,0.00027723646889739903
1761.8511569731081,0.0002506264229315711
1762.8517823639775,0.00022642875519219684
1763.8524077548468,0.00020443936750449323
1764.853033145716,0.00018446998169198534
1765.8536585365853,0.00016634705134367338
1766.8542839274546,0.0001499107357581874
1767.854909318324,0.0001350139336519845
1768.855534709193,0.0001215213742065533
1769.8561601000624,0.00010930876302990485
1770.8567854909318,9.826198061966002e-05
1771.8574108818011,8.827633093712344e-05
1772.8580362726702,7.925583773317845e-05
1773.8586616635396,7.111258630613491e-05
1774.859287054409,6.376610841813864e-05
1775.8599124452783,5.714280814914888e-05
1776.8605378361476,5.1175426525215616e-05
1777.8611632270167,4.580254281972814e-05
1778.861788617886,4.0968110491849656e-05
1779.8624140087554,3.662102579475687e-05
1780.8630393996248,3.271472715682081e-05
1781.8636647904939,2.920682351104104e-05
1782.8642901813632,2.6058749821174914e-05
1783.8649155722326,2.32354481267167e-05
1784.865540963102,2.070507250261979e-05
1785.8661663539713,1.843871640312832e-05
1786.8667917448404,1.6410160931837047e-05
1787.8674171357097,1.4595642651876805e-05
1788.868042526579,1.2973639620645388e-05
1789.8686679174484,1.1524674402495068e-05
1790.8692933083175,1.0231132880113565e-05
1791.8699186991869,9.077097750755445e-06
1792.8705440900562,8.04819565691063e-06
1793.8711694809256,7.131456962281907e-06
1794.8717948717947,6.315187243034929e-06
1795.872420262664,5.58884962108244e-06
1796.8730456535334,4.942957120654171e-06
1797.8736710444027,4.368974281534466e-06
1798.874296435272,3.8592273121398725e-06
1799.8749218261412,3.406822113039138e-06
1800.8755472170105,3.005569546624998e-06
1801.8761726078799,2.64991737145613e-06
1802.8767979987492,2.334888300335104e-06
1803.8774233896183,2.0560236795339936e-06
1804.8780487804877,1.8093323227679647e-06
1805.878674171357,1.5912440676214602e-06
1806.8792995622264,1.3985676542100638e-06
1807.8799249530955,1.228452555993894e-06
1808.8805503439648,1.0783544209112151e-06
1809.8811757348342,9.460038074569663e-07
1810.8818011257035,8.293779250620108e-07
1811.8824265165729,7.266751112192524e-07
1812.883051907442,6.362917993255535e-07
1813.8836772983113,5.568017512450013e-07
1814.8843026891807,4.869373472259087e-07
1815.88492808005,4.255727430957225e-07
1816.8855534709191,3.7170872069147116e-07
1817.8861788617885,3.244590723285117e-07
1818.8868042526578,2.8303837383951654e-07
1819.8874296435272,2.4675101339529903e-07
1820.8880550343965,2.1498135501656977e-07
1821.8886804252656,1.871849264625408e-07
1822.889305816135,1.6288053109991633e-07
1823.8899312070043,1.4164319247173282e-07
1824.8905565978737,1.230978486544454e-07
1825.8911819887428,1.0691372116656287e-07
1826.8918073796121,9.279929022195943e-08
1827.8924327704815,8.049781455319286e-08
1828.8930581613508,6.978333990861143e-08
1829.89368355222,6.045714569392709e-08
1830.8943089430893,5.234458412305611e-08
1831.8949343339586,4.529227070156383e-08
1832.895559724828,3.916558892316114e-08
1833.8961851156973,3.384647574792408e-08
1834.8968105065665,2.9231457780035992e-08
1835.8974358974358,2.5229911101062194e-08
1836.8980612883051,2.1762520468076866e-08
1837.8986866791745,1.875991607848605e-08
1838.8993120700436,1.616146835767024e-08
1839.899937460913,1.3914223262221424e-08
1840.9005628517823,1.1971962429859696e-08
1841.9011882426516,1.0294374164680086e-08
1842.9018136335208,8.846322739597802e-09
1843.90243902439,7.597204841645152e-09
1844.9030644152595,6.520383193973407e-09
1845.9036898061288,5.592688473627149e-09
1846.9043151969981,4.793981618020297e-09
1847.9049405878673,4.106769486118252e-09
1848.9055659787366,3.515867622339588e-09
1849.906191369606,3.0081045709718196e-09
1850.9068167604753,2.5720628145107456e-09
1851.9074421513444,2.1978519681395923e-09
1852.9080675422138,1.876910361226482e-09
1853.908692933083,1.6018315813165182e-09
1854.9093183239524,1.3662129521204296e-09
1855.9099437148218,1.164523269455255e-09
1856.910569105691,9.91987432476474e-10
1857.9111944965603,8.4448588594475e-10
1858.9118198874296,7.1846703637685e-10
1859.912445278299,6.108710240628534e-10
1860.913070669168,5.190634270898699e-10
1861.9136960600374,4.407776453883608e-10
1862.9143214509068,3.7406486483857856e-10
1863.914946841776,3.1725063581587833e-10
1864.9155722326452,2.688972191713339e-10
1865.9161976235146,2.2777095728576767e-10
1866.916823014384,1.928140200707698e-10
1867.9174484052533,1.631199570195643e-10
1868.9180737961226,1.3791255788761677e-10
1869.9186991869917,1.1652758742412566e-10
1870.919324577861,9.839701477856819e-11
1871.9199499687304,8.303540665872125e-11
1872.9205753595998,7.002819580786542e-11
1873.9212007504689,5.902157360189463e-11
1874.9218261413382,4.9713788164968686e-11
1875.9224515322076,4.184765791890154e-11
1876.923076923077,3.52041354067801e-11
1877.923702313946,2.959677800002646e-11
1878.9243277048154,2.4867001094109793e-11
1879.9249530956847,2.0880005961233124e-11
1880.925578486554,1.752128885821605e-11
1881.9262038774234,1.46936505491419e-11
1882.9268292682925,1.2314636328121451e-11
1883.9274546591619,1.031434612309643e-11
1884.9280800500312,8.63356250753307e-12
1885.9287054409006,7.222151601798357e-12
1886.9293308317697,6.037698049412474e-12
1887.929956222639,5.044340627409608e-12
1888.9305816135084,4.2117797019405325e-12
1889.9312070043777,3.514431763814394e-12
1890.931832395247,2.930709756047836e-12
1891.9324577861162,2.442410908409006e-12
1892.9330831769855,2.034196385116432e-12
1893.9337085678549,1.6931492859732254e-12
1894.9343339587242,1.4083994659673933e-12
1895.9349593495933,1.1708052953014425e-12
1896.9355847404627,9.726839070692094e-13
1897.936210131332,8.075827048214923e-13
1898.9368355222014,6.700859543587391e-13
1899.9374609130705,5.556511869752694e-13
1900.9380863039398,4.604709156099118e-13
1901.9387116948092,3.8135582875707036e-13
1902.9393370856785,3.156361949836933e-13
1903.9399624765479,2.610786968313558e-13
1904.940587867417,2.158163282916041e-13
1905.9412132582863,1.782893448917343e-13
1906.9418386491557,1.4719555831352611e-13
1907.942464040025,1.21448525800756e-13
1908.9430894308941,1.0014240477887775e-13
1909.9437148217635,8.252243060681687e-14
1910.9443402126328,6.796013493402711e-14
1911.9449656035022,5.5932557806805145e-14
1912.9455909943713,4.600482194436056e-14
1913.9462163852406,3.7815535478551865e-14
1914.94684177611,3.106457248653782e-14
1915.9474671669793,2.5502851039077723e-14
1916.9480925578487,2.0923788118919296e-14
1917.9487179487178,1.715616124078585e-14
1918.9493433395871,1.4058149300458146e-14
1919.9499687304565,1.1512361267758436e-14
1920.9505941213258,9.42169181697923e-15
1921.951219512195,7.705868711027048e-15
1922.9518449030643,6.298578448155618e-15
1923.9524702939336,5.14507496054635e-15
1924.953095684803,4.2001915473976976e-15
1925.9537210756723,3.426689177995416e-15
1926.9543464665414,2.7938851912887662e-15
1927.9549718574108,2.276515569234096e-15
1928.9555972482801,1.853791643995498e-15
1929.9562226391495,1.508618544727284e-15
1930.9568480300186,1.2269480933661214e-15
1931.957473420888,9.972433857173136e-16
1932.9580988117573,8.100360836406508e-16
1933.9587242026266,6.575606140901812e-16
1934.9593495934957,5.334521205037028e-16
1935.959974984365,4.3249722531414653e-16
1936.9606003752344,3.50428509716284e-16
1937.9612257661038,2.8375515763572266e-16
1938.9618511569731,2.2962349504821087e-16
1939.9624765478422,1.857022253412796e-16
1940.9631019387116,1.5008805153232678e-16
1941.963727329581,1.2122811641808656e-16
1942.9643527204503,9.785630691400359e-17
1943.9649781113194,7.894097971267138e-17
1944.9656035021887,6.364208932793953e-17
1945.966228893058,5.1276051135473125e-17
1946.9668542839274,4.128696332242001e-17
1947.9674796747966,3.3223052868598665e-17
1948.968105065666,2.6717410268560645e-17
1949.9687304565352,2.1472242732047645e-17
1950.9693558474046,1.724601195532725e-17
1951.969981238274,1.3842935138875703e-17
1952.970606629143,1.1104420815430719e-17
1953.9712320200124,8.902087636968266e-18
1954.9718574108817,7.132077366166472e-18
1955.972482801751,5.710425265536867e-18
1956.9731081926202,4.569293815268265e-18
1957.9737335834895,3.653910826577193e-18
1958.974358974359,2.9200818826962323e-18
1959.9749843652282,2.332170736665447e-18
1960.9756097560976,1.8614607353917686e-18
1961.9762351469667,1.4848262762836001e-18
1962.976860537836,1.183656358273665e-18
1963.9774859287054,9.429829765538692e-19
1964.9781113195747,7.507758531613781e-19
1965.9787367104439,5.973721424724523e-19
1966.9793621013132,4.750155888499182e-19
1967.9799874921825,3.774843794372449e-19
1968.980612883052,2.9979082264441843e-19
1969.981238273921,2.3793915182245245e-19
1970.9818636647904,1.8873033497797608e-19
1971.9824890556597,1.4960487261313805e-19
1972.983114446529,1.185162749825347e-19
1973.9837398373984,9.38292994022039e-20
1974.9843652282675,7.423815679027499e-20
1975.9849906191369,5.87008126769212e-20
1976.9856160100062,4.638625097848888e-20
1977.9862414008755,3.663217113592899e-20
1978.9868667917447,2.8911077090850453e-20
1979.987492182614,2.2803111477414193e-20
1980.9881175734834,1.7974307837451296e-20
1981.9887429643527,1.4159191863888844e-20
1982.9893683552218,1.114687123568228e-20
1983.9899937460912,8.769921951574952e-21
1984.9906191369605,6.895514859498293e-21
1985.9912445278298,5.4183355322814544e-21
1986.9918699186992,4.254938804820408e-21
1987.9924953095683,3.3392502543561204e-21
1988.9931207004377,2.618983989077042e-21
1989.993746091307,2.0527919948336297e-21
1990.9943714821763,1.6079971467728808e-21
1991.9949968730455,1.2587915777631918e-21
1992.9956222639148,9.848058268484166e-22
1993.9962476547842,7.699732136758313e-22
1994.9968730456535,6.016291225740633e-22
1995.9974984365228,4.697970773736537e-22
1996.998123827392,3.6662324501799335e-22
1997.9987492182613,2.8592880540131883e-22
1998.9993746091307,2.228558551336405e-22
2000.0,1.735874863167526e-22
